'Elapsed time','ECG'
'seconds','mV'
0.000,-0.273
0.004,-0.307
0.008,-0.297
0.012,-0.320
0.016,-0.333
0.020,-0.335
0.024,-0.338
0.028,-0.325
0.032,-0.328
0.036,-0.295
0.040,-0.345
0.044,-0.278
0.048,-0.328
0.052,-0.347
0.056,-0.375
0.060,-0.328
0.064,-0.300
0.068,-0.307
0.072,-0.297
0.076,-0.285
0.080,-0.278
0.084,-0.297
0.088,-0.300
0.092,-0.247
0.096,-0.260
0.100,-0.263
0.104,-0.225
0.108,-0.210
0.112,-0.215
0.116,-0.215
0.120,-0.240
0.124,-0.203
0.128,-0.212
0.132,-0.207
0.136,-0.170
0.140,-0.200
0.144,-0.195
0.148,-0.188
0.152,-0.198
0.156,-0.228
0.160,-0.225
0.164,-0.285
0.168,-0.250
0.172,-0.250
0.176,-0.228
0.180,-0.207
0.184,-0.237
0.188,-0.253
0.192,-0.228
0.196,-0.233
0.200,-0.188
0.204,-0.185
0.208,-0.200
0.212,-0.160
0.216,-0.122
0.220,-0.125
0.224,-0.100
0.228,-0.022
0.232,0.095
0.236,0.312
0.240,0.588
0.244,0.978
0.248,1.353
0.252,1.770
0.256,2.112
0.260,2.350
0.264,2.283
0.268,2.000
0.272,1.500
0.276,0.978
0.280,0.537
0.284,0.138
0.288,-0.122
0.292,-0.198
0.296,-0.250
0.300,-0.287
0.304,-0.212
0.308,-0.263
0.312,-0.273
0.316,-0.307
0.320,-0.325
0.324,-0.347
0.328,-0.340
0.332,-0.333
0.336,-0.328
0.340,-0.360
0.344,-0.378
0.348,-0.390
0.352,-0.390
0.356,-0.420
0.360,-0.388
0.364,-0.422
0.368,-0.400
0.372,-0.412
0.376,-0.415
0.380,-0.438
0.384,-0.435
0.388,-0.432
0.392,-0.425
0.396,-0.438
0.400,-0.435
0.404,-0.422
0.408,-0.395
0.412,-0.440
0.416,-0.460
0.420,-0.440
0.424,-0.487
0.428,-0.425
0.432,-0.412
0.436,-0.388
0.440,-0.388
0.444,-0.453
0.448,-0.432
0.452,-0.448
0.456,-0.438
0.460,-0.415
0.464,-0.440
0.468,-0.362
0.472,-0.407
0.476,-0.388
0.480,-0.415
0.484,-0.422
0.488,-0.438
0.492,-0.425
0.496,-0.435
0.500,-0.370
0.504,-0.398
0.508,-0.388
0.512,-0.412
0.516,-0.412
0.520,-0.400
0.524,-0.398
0.528,-0.445
0.532,-0.383
0.536,-0.395
0.540,-0.370
0.544,-0.378
0.548,-0.420
0.552,-0.427
0.556,-0.398
0.560,-0.388
0.564,-0.375
0.568,-0.338
0.572,-0.347
0.576,-0.315
0.580,-0.328
0.584,-0.328
0.588,-0.312
0.592,-0.215
0.596,-0.247
0.600,-0.177
0.604,-0.150
0.608,-0.147
0.612,-0.138
0.616,-0.128
0.620,-0.160
0.624,-0.170
0.628,-0.122
0.632,-0.115
0.636,-0.102
0.640,-0.122
0.644,-0.133
0.648,-0.110
0.652,-0.165
0.656,-0.175
0.660,-0.172
0.664,-0.170
0.668,-0.135
0.672,-0.165
0.676,-0.195
0.680,-0.185
0.684,-0.220
0.688,-0.188
0.692,-0.203
0.696,-0.233
0.700,-0.198
0.704,-0.212
0.708,-0.207
0.712,-0.188
0.716,-0.185
0.720,-0.212
0.724,-0.212
0.728,-0.200
0.732,-0.195
0.736,-0.212
0.740,-0.200
0.744,-0.182
0.748,-0.250
0.752,-0.212
0.756,-0.237
0.760,-0.233
0.764,-0.207
0.768,-0.237
0.772,-0.220
0.776,-0.223
0.780,-0.215
0.784,-0.263
0.788,-0.285
0.792,-0.260
0.796,-0.250
0.800,-0.258
0.804,-0.258
0.808,-0.273
0.812,-0.275
0.816,-0.310
0.820,-0.290
0.824,-0.290
0.828,-0.287
0.832,-0.312
0.836,-0.297
0.840,-0.312
0.844,-0.290
0.848,-0.320
0.852,-0.340
0.856,-0.350
0.860,-0.345
0.864,-0.315
0.868,-0.312
0.872,-0.310
0.876,-0.287
0.880,-0.310
0.884,-0.312
0.888,-0.372
0.892,-0.338
0.896,-0.347
0.900,-0.340
0.904,-0.325
0.908,-0.333
0.912,-0.365
0.916,-0.347
0.920,-0.338
0.924,-0.385
0.928,-0.307
0.932,-0.375
0.936,-0.350
0.940,-0.352
0.944,-0.340
0.948,-0.365
0.952,-0.350
0.956,-0.383
0.960,-0.350
0.964,-0.350
0.968,-0.338
0.972,-0.362
0.976,-0.372
0.980,-0.352
0.984,-0.395
0.988,-0.383
0.992,-0.360
0.996,-0.378
1.000,-0.372
1.004,-0.352
1.008,-0.365
1.012,-0.383
1.016,-0.352
1.020,-0.347
1.024,-0.383
1.028,-0.378
1.032,-0.378
1.036,-0.345
1.040,-0.352
1.044,-0.362
1.048,-0.412
1.052,-0.390
1.056,-0.362
1.060,-0.372
1.064,-0.357
1.068,-0.350
1.072,-0.338
1.076,-0.365
1.080,-0.328
1.084,-0.395
1.088,-0.390
1.092,-0.362
1.096,-0.372
1.100,-0.357
1.104,-0.345
1.108,-0.362
1.112,-0.388
1.116,-0.383
1.120,-0.378
1.124,-0.378
1.128,-0.345
1.132,-0.350
1.136,-0.297
1.140,-0.312
1.144,-0.360
1.148,-0.360
1.152,-0.362
1.156,-0.352
1.160,-0.335
1.164,-0.300
1.168,-0.263
1.172,-0.258
1.176,-0.250
1.180,-0.287
1.184,-0.270
1.188,-0.265
1.192,-0.285
1.196,-0.278
1.200,-0.265
1.204,-0.223
1.208,-0.247
1.212,-0.273
1.216,-0.253
1.220,-0.287
1.224,-0.295
1.228,-0.287
1.232,-0.297
1.236,-0.312
1.240,-0.290
1.244,-0.325
1.248,-0.312
1.252,-0.320
1.256,-0.340
1.260,-0.345
1.264,-0.312
1.268,-0.265
1.272,-0.250
1.276,-0.263
1.280,-0.265
1.284,-0.263
1.288,-0.285
1.292,-0.235
1.296,-0.223
1.300,-0.175
1.304,-0.120
1.308,0.075
1.312,0.302
1.316,0.657
1.320,1.075
1.324,1.545
1.328,1.875
1.332,2.013
1.336,1.772
1.340,1.315
1.344,0.745
1.348,0.203
1.352,-0.190
1.356,-0.347
1.360,-0.445
1.364,-0.432
1.368,-0.350
1.372,-0.340
1.376,-0.362
1.380,-0.365
1.384,-0.398
1.388,-0.427
1.392,-0.438
1.396,-0.432
1.400,-0.497
1.404,-0.427
1.408,-0.450
1.412,-0.510
1.416,-0.507
1.420,-0.487
1.424,-0.507
1.428,-0.522
1.432,-0.502
1.436,-0.522
1.440,-0.475
1.444,-0.525
1.448,-0.532
1.452,-0.583
1.456,-0.552
1.460,-0.550
1.464,-0.545
1.468,-0.550
1.472,-0.562
1.476,-0.552
1.480,-0.588
1.484,-0.583
1.488,-0.578
1.492,-0.562
1.496,-0.532
1.500,-0.565
1.504,-0.535
1.508,-0.550
1.512,-0.575
1.516,-0.590
1.520,-0.573
1.524,-0.585
1.528,-0.573
1.532,-0.578
1.536,-0.557
1.540,-0.560
1.544,-0.595
1.548,-0.578
1.552,-0.583
1.556,-0.600
1.560,-0.600
1.564,-0.608
1.568,-0.583
1.572,-0.608
1.576,-0.640
1.580,-0.660
1.584,-0.647
1.588,-0.690
1.592,-0.665
1.596,-0.665
1.600,-0.627
1.604,-0.627
1.608,-0.632
1.612,-0.637
1.616,-0.657
1.620,-0.672
1.624,-0.677
1.628,-0.647
1.632,-0.645
1.636,-0.635
1.640,-0.608
1.644,-0.652
1.648,-0.650
1.652,-0.670
1.656,-0.625
1.660,-0.623
1.664,-0.625
1.668,-0.557
1.672,-0.545
1.676,-0.532
1.680,-0.490
1.684,-0.500
1.688,-0.512
1.692,-0.470
1.696,-0.445
1.700,-0.412
1.704,-0.412
1.708,-0.407
1.712,-0.427
1.716,-0.448
1.720,-0.472
1.724,-0.453
1.728,-0.482
1.732,-0.427
1.736,-0.427
1.740,-0.500
1.744,-0.487
1.748,-0.522
1.752,-0.570
1.756,-0.550
1.760,-0.570
1.764,-0.578
1.768,-0.532
1.772,-0.547
1.776,-0.550
1.780,-0.565
1.784,-0.600
1.788,-0.595
1.792,-0.600
1.796,-0.608
1.800,-0.570
1.804,-0.565
1.808,-0.583
1.812,-0.595
1.816,-0.603
1.820,-0.608
1.824,-0.603
1.828,-0.608
1.832,-0.598
1.836,-0.600
1.840,-0.583
1.844,-0.603
1.848,-0.615
1.852,-0.660
1.856,-0.645
1.860,-0.660
1.864,-0.608
1.868,-0.615
1.872,-0.650
1.876,-0.652
1.880,-0.640
1.884,-0.662
1.888,-0.657
1.892,-0.657
1.896,-0.660
1.900,-0.665
1.904,-0.682
1.908,-0.675
1.912,-0.738
1.916,-0.723
1.920,-0.720
1.924,-0.703
1.928,-0.750
1.932,-0.733
1.936,-0.713
1.940,-0.695
1.944,-0.738
1.948,-0.740
1.952,-0.777
1.956,-0.797
1.960,-0.772
1.964,-0.765
1.968,-0.762
1.972,-0.752
1.976,-0.782
1.980,-0.775
1.984,-0.775
1.988,-0.838
1.992,-0.815
1.996,-0.810
2.000,-0.812
2.004,-0.833
2.008,-0.823
2.012,-0.835
2.016,-0.877
2.020,-0.882
2.024,-0.882
2.028,-0.877
2.032,-0.865
2.036,-0.835
2.040,-0.858
2.044,-0.860
2.048,-0.895
2.052,-0.882
2.056,-0.890
2.060,-0.875
2.064,-0.863
2.068,-0.858
2.072,-0.853
2.076,-0.900
2.080,-0.877
2.084,-0.895
2.088,-0.882
2.092,-0.882
2.096,-0.865
2.100,-0.870
2.104,-0.900
2.108,-0.850
2.112,-0.877
2.116,-0.882
2.120,-0.910
2.124,-0.920
2.128,-0.907
2.132,-0.865
2.136,-0.877
2.140,-0.875
2.144,-0.890
2.148,-0.907
2.152,-0.907
2.156,-0.915
2.160,-0.897
2.164,-0.912
2.168,-0.895
2.172,-0.902
2.176,-0.925
2.180,-0.910
2.184,-0.925
2.188,-0.935
2.192,-0.935
2.196,-0.910
2.200,-0.927
2.204,-0.925
2.208,-0.935
2.212,-0.948
2.216,-0.973
2.220,-0.988
2.224,-0.953
2.228,-0.983
2.232,-0.965
2.236,-0.975
2.240,-0.925
2.244,-0.988
2.248,-1.008
2.252,-1.000
2.256,-0.990
2.260,-0.970
2.264,-0.998
2.268,-0.985
2.272,-0.988
2.276,-1.000
2.280,-1.002
2.284,-1.000
2.288,-0.983
2.292,-1.012
2.296,-0.970
2.300,-0.953
2.304,-0.940
2.308,-0.985
2.312,-1.015
2.316,-1.020
2.320,-1.048
2.324,-1.028
2.328,-1.050
2.332,-1.010
2.336,-1.038
2.340,-1.077
2.344,-1.103
2.348,-1.127
2.352,-1.140
2.356,-1.175
2.360,-1.170
2.364,-1.145
2.368,-1.140
2.372,-1.150
2.376,-1.145
2.380,-1.165
2.384,-1.173
2.388,-1.175
2.392,-1.133
2.396,-1.137
2.400,-1.077
2.404,-1.012
2.408,-0.848
2.412,-0.637
2.416,-0.250
2.420,0.200
2.424,0.700
2.428,1.150
2.432,1.420
2.436,1.415
2.440,1.123
2.444,0.627
2.448,0.077
2.452,-0.438
2.456,-0.828
2.460,-1.120
2.464,-1.240
2.468,-1.290
2.472,-1.308
2.476,-1.300
2.480,-1.320
2.484,-1.365
2.488,-1.383
2.492,-1.385
2.496,-1.410
2.500,-1.440
2.504,-1.423
2.508,-1.452
2.512,-1.450
2.516,-1.458
2.520,-1.512
2.524,-1.488
2.528,-1.478
2.532,-1.472
2.536,-1.472
2.540,-1.460
2.544,-1.522
2.548,-1.508
2.552,-1.512
2.556,-1.485
2.560,-1.478
2.564,-1.482
2.568,-1.472
2.572,-1.440
2.576,-1.440
2.580,-1.475
2.584,-1.485
2.588,-1.510
2.592,-1.498
2.596,-1.475
2.600,-1.462
2.604,-1.450
2.608,-1.465
2.612,-1.462
2.616,-1.427
2.620,-1.438
2.624,-1.438
2.628,-1.433
2.632,-1.438
2.636,-1.395
2.640,-1.403
2.644,-1.407
2.648,-1.397
2.652,-1.413
2.656,-1.397
2.660,-1.400
2.664,-1.363
2.668,-1.340
2.672,-1.312
2.676,-1.335
2.680,-1.377
2.684,-1.327
2.688,-1.350
2.692,-1.315
2.696,-1.327
2.700,-1.285
2.704,-1.245
2.708,-1.282
2.712,-1.300
2.716,-1.285
2.720,-1.295
2.724,-1.288
2.728,-1.240
2.732,-1.258
2.736,-1.208
2.740,-1.208
2.744,-1.225
2.748,-1.235
2.752,-1.212
2.756,-1.200
2.760,-1.195
2.764,-1.115
2.768,-1.100
2.772,-1.052
2.776,-1.032
2.780,-1.025
2.784,-0.975
2.788,-0.960
2.792,-0.900
2.796,-0.900
2.800,-0.873
2.804,-0.863
2.808,-0.825
2.812,-0.873
2.816,-0.877
2.820,-0.858
2.824,-0.887
2.828,-0.860
2.832,-0.870
2.836,-0.858
2.840,-0.825
2.844,-0.882
2.848,-0.863
2.852,-0.870
2.856,-0.823
2.860,-0.828
2.864,-0.877
2.868,-0.860
2.872,-0.838
2.876,-0.825
2.880,-0.825
2.884,-0.848
2.888,-0.853
2.892,-0.825
2.896,-0.828
2.900,-0.790
2.904,-0.815
2.908,-0.790
2.912,-0.807
2.916,-0.825
2.920,-0.823
2.924,-0.797
2.928,-0.785
2.932,-0.775
2.936,-0.752
2.940,-0.775
2.944,-0.762
2.948,-0.750
2.952,-0.797
2.956,-0.815
2.960,-0.782
2.964,-0.790
2.968,-0.752
2.972,-0.757
2.976,-0.740
2.980,-0.762
2.984,-0.797
2.988,-0.775
2.992,-0.757
2.996,-0.762
3.000,-0.757
3.004,-0.720
3.008,-0.752
3.012,-0.748
3.016,-0.775
3.020,-0.772
3.024,-0.785
3.028,-0.735
3.032,-0.740
3.036,-0.713
3.040,-0.725
3.044,-0.745
3.048,-0.775
3.052,-0.762
3.056,-0.762
3.060,-0.760
3.064,-0.738
3.068,-0.738
3.072,-0.720
3.076,-0.762
3.080,-0.728
3.084,-0.757
3.088,-0.760
3.092,-0.745
3.096,-0.738
3.100,-0.733
3.104,-0.733
3.108,-0.690
3.112,-0.710
3.116,-0.715
3.120,-0.723
3.124,-0.688
3.128,-0.735
3.132,-0.720
3.136,-0.708
3.140,-0.700
3.144,-0.698
3.148,-0.715
3.152,-0.720
3.156,-0.713
3.160,-0.733
3.164,-0.713
3.168,-0.690
3.172,-0.698
3.176,-0.708
3.180,-0.690
3.184,-0.725
3.188,-0.703
3.192,-0.723
3.196,-0.715
3.200,-0.677
3.204,-0.688
3.208,-0.708
3.212,-0.703
3.216,-0.670
3.220,-0.723
3.224,-0.688
3.228,-0.710
3.232,-0.682
3.236,-0.635
3.240,-0.657
3.244,-0.682
3.248,-0.662
3.252,-0.695
3.256,-0.688
3.260,-0.660
3.264,-0.627
3.268,-0.623
3.272,-0.660
3.276,-0.632
3.280,-0.652
3.284,-0.625
3.288,-0.625
3.292,-0.670
3.296,-0.632
3.300,-0.637
3.304,-0.632
3.308,-0.625
3.312,-0.610
3.316,-0.623
3.320,-0.665
3.324,-0.635
3.328,-0.603
3.332,-0.588
3.336,-0.578
3.340,-0.557
3.344,-0.610
3.348,-0.578
3.352,-0.595
3.356,-0.560
3.360,-0.527
3.364,-0.500
3.368,-0.500
3.372,-0.512
3.376,-0.472
3.380,-0.487
3.384,-0.500
3.388,-0.465
3.392,-0.445
3.396,-0.450
3.400,-0.415
3.404,-0.422
3.408,-0.420
3.412,-0.410
3.416,-0.425
3.420,-0.422
3.424,-0.420
3.428,-0.453
3.432,-0.427
3.436,-0.410
3.440,-0.425
3.444,-0.465
3.448,-0.435
3.452,-0.415
3.456,-0.415
3.460,-0.390
3.464,-0.370
3.468,-0.338
3.472,-0.340
3.476,-0.328
3.480,-0.323
3.484,-0.338
3.488,-0.310
3.492,-0.282
3.496,-0.237
3.500,-0.122
3.504,0.037
3.508,0.278
3.512,0.613
3.516,1.045
3.520,1.470
3.524,1.972
3.528,2.288
3.532,2.395
3.536,2.145
3.540,1.660
3.544,1.065
3.548,0.475
3.552,-0.007
3.556,-0.250
3.560,-0.347
3.564,-0.378
3.568,-0.362
3.572,-0.328
3.576,-0.295
3.580,-0.333
3.584,-0.345
3.588,-0.388
3.592,-0.412
3.596,-0.410
3.600,-0.432
3.604,-0.427
3.608,-0.432
3.612,-0.435
3.616,-0.445
3.620,-0.435
3.624,-0.400
3.628,-0.458
3.632,-0.432
3.636,-0.403
3.640,-0.375
3.644,-0.440
3.648,-0.440
3.652,-0.448
3.656,-0.450
3.660,-0.445
3.664,-0.460
3.668,-0.453
3.672,-0.453
3.676,-0.445
3.680,-0.448
3.684,-0.458
3.688,-0.460
3.692,-0.465
3.696,-0.403
3.700,-0.425
3.704,-0.390
3.708,-0.400
3.712,-0.388
3.716,-0.425
3.720,-0.463
3.724,-0.450
3.728,-0.427
3.732,-0.422
3.736,-0.375
3.740,-0.390
3.744,-0.388
3.748,-0.410
3.752,-0.407
3.756,-0.435
3.760,-0.395
3.764,-0.388
3.768,-0.372
3.772,-0.362
3.776,-0.357
3.780,-0.385
3.784,-0.385
3.788,-0.403
3.792,-0.375
3.796,-0.370
3.800,-0.352
3.804,-0.362
3.808,-0.347
3.812,-0.360
3.816,-0.335
3.820,-0.390
3.824,-0.320
3.828,-0.325
3.832,-0.285
3.836,-0.263
3.840,-0.253
3.844,-0.225
3.848,-0.200
3.852,-0.177
3.856,-0.163
3.860,-0.125
3.864,-0.100
3.868,-0.085
3.872,-0.062
3.876,-0.060
3.880,-0.062
3.884,-0.095
3.888,-0.083
3.892,-0.075
3.896,-0.085
3.900,-0.090
3.904,-0.062
3.908,-0.077
3.912,-0.100
3.916,-0.087
3.920,-0.125
3.924,-0.107
3.928,-0.113
3.932,-0.070
3.936,-0.095
3.940,-0.102
3.944,-0.100
3.948,-0.113
3.952,-0.095
3.956,-0.122
3.960,-0.090
3.964,-0.077
3.968,-0.077
3.972,-0.087
3.976,-0.100
3.980,-0.098
3.984,-0.100
3.988,-0.125
3.992,-0.075
3.996,-0.075
4.000,-0.083
4.004,-0.072
4.008,-0.098
4.012,-0.090
4.016,-0.138
4.020,-0.140
4.024,-0.100
4.028,-0.115
4.032,-0.113
4.036,-0.110
4.040,-0.110
4.044,-0.125
4.048,-0.147
4.052,-0.147
4.056,-0.185
4.060,-0.163
4.064,-0.145
4.068,-0.113
4.072,-0.140
4.076,-0.140
4.080,-0.135
4.084,-0.182
4.088,-0.158
4.092,-0.165
4.096,-0.185
4.100,-0.150
4.104,-0.150
4.108,-0.158
4.112,-0.172
4.116,-0.188
4.120,-0.190
4.124,-0.182
4.128,-0.175
4.132,-0.185
4.136,-0.172
4.140,-0.133
4.144,-0.175
4.148,-0.160
4.152,-0.203
4.156,-0.185
4.160,-0.188
4.164,-0.145
4.168,-0.177
4.172,-0.140
4.176,-0.160
4.180,-0.182
4.184,-0.207
4.188,-0.172
4.192,-0.210
4.196,-0.212
4.200,-0.177
4.204,-0.158
4.208,-0.158
4.212,-0.210
4.216,-0.212
4.220,-0.212
4.224,-0.175
4.228,-0.182
4.232,-0.170
4.236,-0.138
4.240,-0.150
4.244,-0.177
4.248,-0.172
4.252,-0.165
4.256,-0.185
4.260,-0.185
4.264,-0.147
4.268,-0.140
4.272,-0.145
4.276,-0.122
4.280,-0.158
4.284,-0.188
4.288,-0.150
4.292,-0.163
4.296,-0.140
4.300,-0.135
4.304,-0.140
4.308,-0.140
4.312,-0.163
4.316,-0.175
4.320,-0.163
4.324,-0.163
4.328,-0.160
4.332,-0.138
4.336,-0.120
4.340,-0.095
4.344,-0.113
4.348,-0.125
4.352,-0.122
4.356,-0.102
4.360,-0.128
4.364,-0.110
4.368,-0.085
4.372,-0.087
4.376,-0.115
4.380,-0.125
4.384,-0.133
4.388,-0.083
4.392,-0.100
4.396,-0.077
4.400,-0.085
4.404,-0.035
4.408,-0.015
4.412,-0.028
4.416,-0.058
4.420,0.007
4.424,-0.028
4.428,0.007
4.432,0.013
4.436,0.028
4.440,0.015
4.444,0.015
4.448,0.028
4.452,0.000
4.456,0.022
4.460,0.015
4.464,0.035
4.468,0.013
4.472,-0.033
4.476,0.022
4.480,-0.048
4.484,-0.033
4.488,-0.058
4.492,-0.028
4.496,-0.022
4.500,0.020
4.504,0.007
4.508,0.015
4.512,0.025
4.516,0.035
4.520,0.022
4.524,0.033
4.528,0.062
4.532,0.102
4.536,0.095
4.540,0.147
4.544,0.133
4.548,0.260
4.552,0.385
4.556,0.625
4.560,0.983
4.564,1.482
4.568,1.970
4.572,2.410
4.576,2.565
4.580,2.498
4.584,2.070
4.588,1.522
4.592,0.897
4.596,0.458
4.600,0.140
4.604,-0.022
4.608,0.000
4.612,-0.035
4.616,-0.010
4.620,0.000
4.624,0.010
4.628,-0.015
4.632,0.003
4.636,-0.050
4.640,-0.050
4.644,-0.077
4.648,-0.110
4.652,-0.098
4.656,-0.100
4.660,-0.122
4.664,-0.115
4.668,-0.060
4.672,-0.113
4.676,-0.095
4.680,-0.110
4.684,-0.147
4.688,-0.128
4.692,-0.113
4.696,-0.115
4.700,-0.100
4.704,-0.102
4.708,-0.125
4.712,-0.140
4.716,-0.113
4.720,-0.150
4.724,-0.133
4.728,-0.107
4.732,-0.147
4.736,-0.098
4.740,-0.113
4.744,-0.120
4.748,-0.147
4.752,-0.150
4.756,-0.115
4.760,-0.147
4.764,-0.138
4.768,-0.113
4.772,-0.062
4.776,-0.095
4.780,-0.120
4.784,-0.135
4.788,-0.110
4.792,-0.115
4.796,-0.122
4.800,-0.115
4.804,-0.100
4.808,-0.113
4.812,-0.083
4.816,-0.120
4.820,-0.147
4.824,-0.120
4.828,-0.133
4.832,-0.125
4.836,-0.113
4.840,-0.122
4.844,-0.107
4.848,-0.150
4.852,-0.133
4.856,-0.147
4.860,-0.120
4.864,-0.128
4.868,-0.085
4.872,-0.083
4.876,-0.072
4.880,-0.085
4.884,-0.083
4.888,-0.120
4.892,-0.065
4.896,-0.020
4.900,0.000
4.904,0.052
4.908,0.110
4.912,0.077
4.916,0.095
4.920,0.048
4.924,0.077
4.928,0.113
4.932,0.152
4.936,0.150
4.940,0.170
4.944,0.175
4.948,0.138
4.952,0.135
4.956,0.107
4.960,0.140
4.964,0.113
4.968,0.140
4.972,0.122
4.976,0.133
4.980,0.102
4.984,0.065
4.988,0.052
4.992,0.072
4.996,0.090
5.000,0.098
5.004,0.100
5.008,0.085
5.012,0.070
5.016,0.095
5.020,0.048
5.024,0.045
5.028,0.090
5.032,0.058
5.036,0.077
5.040,0.098
5.044,0.052
5.048,0.060
5.052,0.050
5.056,0.028
5.060,0.040
5.064,0.040
5.068,0.050
5.072,0.077
5.076,0.060
5.080,0.050
5.084,-0.010
5.088,0.013
5.092,0.020
5.096,0.025
5.100,0.035
5.104,0.062
5.108,-0.015
5.112,-0.010
5.116,0.003
5.120,-0.040
5.124,-0.015
5.128,-0.033
5.132,0.007
5.136,-0.033
5.140,0.000
5.144,-0.060
5.148,-0.015
5.152,-0.022
5.156,-0.035
5.160,-0.048
5.164,-0.028
5.168,-0.015
5.172,-0.015
5.176,-0.022
5.180,-0.048
5.184,-0.062
5.188,-0.083
5.192,-0.070
5.196,-0.058
5.200,-0.045
5.204,-0.037
5.208,-0.045
5.212,-0.065
5.216,-0.077
5.220,-0.075
5.224,-0.083
5.228,-0.095
5.232,-0.050
5.236,-0.052
5.240,-0.040
5.244,-0.045
5.248,-0.062
5.252,-0.087
5.256,-0.062
5.260,-0.065
5.264,-0.037
5.268,-0.033
5.272,-0.028
5.276,-0.048
5.280,-0.087
5.284,-0.087
5.288,-0.075
5.292,-0.065
5.296,-0.115
5.300,-0.070
5.304,-0.040
5.308,-0.075
5.312,-0.087
5.316,-0.095
5.320,-0.125
5.324,-0.075
5.328,-0.113
5.332,-0.072
5.336,-0.060
5.340,-0.062
5.344,-0.060
5.348,-0.070
5.352,-0.120
5.356,-0.075
5.360,-0.102
5.364,-0.062
5.368,-0.075
5.372,-0.077
5.376,-0.095
5.380,-0.110
5.384,-0.075
5.388,-0.113
5.392,-0.098
5.396,-0.072
5.400,-0.060
5.404,-0.062
5.408,-0.050
5.412,-0.075
5.416,-0.050
5.420,-0.095
5.424,-0.083
5.428,-0.045
5.432,-0.033
5.436,-0.048
5.440,-0.062
5.444,-0.025
5.448,-0.045
5.452,-0.052
5.456,-0.025
5.460,-0.045
5.464,-0.007
5.468,0.022
5.472,0.015
5.476,0.022
5.480,0.022
5.484,0.015
5.488,0.010
5.492,0.035
5.496,0.025
5.500,0.035
5.504,0.062
5.508,0.090
5.512,0.022
5.516,0.045
5.520,-0.020
5.524,0.020
5.528,0.028
5.532,-0.015
5.536,0.007
5.540,0.000
5.544,0.000
5.548,-0.062
5.552,-0.015
5.556,-0.025
5.560,-0.015
5.564,0.022
5.568,0.037
5.572,0.040
5.576,0.052
5.580,0.070
5.584,0.058
5.588,0.095
5.592,0.120
5.596,0.237
5.600,0.445
5.604,0.752
5.608,1.200
5.612,1.637
5.616,2.170
5.620,2.400
5.624,2.320
5.628,1.927
5.632,1.350
5.636,0.765
5.640,0.323
5.644,-0.022
5.648,-0.110
5.652,-0.133
5.656,-0.083
5.660,-0.075
5.664,-0.022
5.668,-0.040
5.672,-0.050
5.676,-0.125
5.680,-0.113
5.684,-0.185
5.688,-0.152
5.692,-0.175
5.696,-0.158
5.700,-0.145
5.704,-0.158
5.708,-0.120
5.712,-0.188
5.716,-0.152
5.720,-0.188
5.724,-0.172
5.728,-0.220
5.732,-0.198
5.736,-0.177
5.740,-0.212
5.744,-0.210
5.748,-0.207
5.752,-0.228
5.756,-0.212
5.760,-0.210
5.764,-0.220
5.768,-0.203
5.772,-0.207
5.776,-0.203
5.780,-0.235
5.784,-0.215
5.788,-0.250
5.792,-0.212
5.796,-0.225
5.800,-0.195
5.804,-0.195
5.808,-0.200
5.812,-0.212
5.816,-0.207
5.820,-0.200
5.824,-0.245
5.828,-0.195
5.832,-0.220
5.836,-0.182
5.840,-0.190
5.844,-0.215
5.848,-0.228
5.852,-0.240
5.856,-0.203
5.860,-0.223
5.864,-0.182
5.868,-0.163
5.872,-0.200
5.876,-0.190
5.880,-0.237
5.884,-0.278
5.888,-0.245
5.892,-0.237
5.896,-0.215
5.900,-0.220
5.904,-0.210
5.908,-0.212
5.912,-0.237
5.916,-0.215
5.920,-0.240
5.924,-0.195
5.928,-0.172
5.932,-0.175
5.936,-0.125
5.940,-0.115
5.944,-0.128
5.948,-0.128
5.952,-0.085
5.956,-0.077
5.960,-0.020
5.964,0.010
5.968,0.028
5.972,0.052
5.976,0.028
5.980,0.007
5.984,0.022
5.988,0.013
5.992,0.025
5.996,0.010
6.000,0.000
6.004,0.003
6.008,-0.013
6.012,-0.010
6.016,-0.033
6.020,-0.050
6.024,-0.048
6.028,-0.058
6.032,-0.050
6.036,-0.072
6.040,-0.060
6.044,-0.033
6.048,-0.040
6.052,-0.083
6.056,-0.072
6.060,-0.083
6.064,-0.025
6.068,-0.033
6.072,-0.035
6.076,-0.035
6.080,-0.070
6.084,-0.062
6.088,-0.070
6.092,-0.062
6.096,-0.040
6.100,-0.062
6.104,-0.015
6.108,-0.013
6.112,-0.050
6.116,-0.048
6.120,-0.075
6.124,-0.077
6.128,-0.045
6.132,-0.050
6.136,-0.045
6.140,-0.072
6.144,-0.062
6.148,-0.107
6.152,-0.110
6.156,-0.113
6.160,-0.087
6.164,-0.122
6.168,-0.110
6.172,-0.090
6.176,-0.100
6.180,-0.122
6.184,-0.125
6.188,-0.122
6.192,-0.120
6.196,-0.150
6.200,-0.133
6.204,-0.090
6.208,-0.100
6.212,-0.140
6.216,-0.163
6.220,-0.138
6.224,-0.152
6.228,-0.158
6.232,-0.133
6.236,-0.083
6.240,-0.113
6.244,-0.140
6.248,-0.133
6.252,-0.165
6.256,-0.188
6.260,-0.150
6.264,-0.125
6.268,-0.122
6.272,-0.115
6.276,-0.135
6.280,-0.125
6.284,-0.175
6.288,-0.177
6.292,-0.138
6.296,-0.138
6.300,-0.125
6.304,-0.160
6.308,-0.152
6.312,-0.133
6.316,-0.150
6.320,-0.170
6.324,-0.158
6.328,-0.120
6.332,-0.135
6.336,-0.145
6.340,-0.100
6.344,-0.128
6.348,-0.140
6.352,-0.165
6.356,-0.147
6.360,-0.158
6.364,-0.160
6.368,-0.150
6.372,-0.110
6.376,-0.125
6.380,-0.145
6.384,-0.140
6.388,-0.160
6.392,-0.150
6.396,-0.150
6.400,-0.125
6.404,-0.138
6.408,-0.147
6.412,-0.152
6.416,-0.140
6.420,-0.165
6.424,-0.140
6.428,-0.128
6.432,-0.122
6.436,-0.115
6.440,-0.140
6.444,-0.122
6.448,-0.125
6.452,-0.140
6.456,-0.152
6.460,-0.160
6.464,-0.107
6.468,-0.100
6.472,-0.113
6.476,-0.113
6.480,-0.138
6.484,-0.125
6.488,-0.145
6.492,-0.087
6.496,-0.113
6.500,-0.083
6.504,-0.062
6.508,-0.060
6.512,-0.065
6.516,-0.052
6.520,-0.072
6.524,-0.060
6.528,-0.015
6.532,-0.013
6.536,-0.010
6.540,-0.007
6.544,-0.015
6.548,-0.033
6.552,-0.058
6.556,-0.013
6.560,-0.037
6.564,0.013
6.568,0.025
6.572,-0.013
6.576,0.015
6.580,-0.037
6.584,-0.040
6.588,-0.048
6.592,-0.045
6.596,-0.048
6.600,-0.028
6.604,-0.015
6.608,-0.013
6.612,-0.028
6.616,-0.020
6.620,0.007
6.624,0.007
6.628,0.000
6.632,0.025
6.636,0.033
6.640,0.075
6.644,0.058
6.648,0.115
6.652,0.300
6.656,0.550
6.660,0.907
6.664,1.360
6.668,1.873
6.672,2.275
6.676,2.462
6.680,2.373
6.684,2.027
6.688,1.475
6.692,0.970
6.696,0.472
6.700,0.175
6.704,0.045
6.708,-0.010
6.712,-0.028
6.716,-0.058
6.720,-0.022
6.724,-0.013
6.728,-0.048
6.732,-0.037
6.736,-0.060
6.740,-0.085
6.744,-0.102
6.748,-0.125
6.752,-0.125
6.756,-0.152
6.760,-0.150
6.764,-0.098
6.768,-0.128
6.772,-0.165
6.776,-0.152
6.780,-0.165
6.784,-0.200
6.788,-0.198
6.792,-0.200
6.796,-0.163
6.800,-0.177
6.804,-0.188
6.808,-0.210
6.812,-0.182
6.816,-0.212
6.820,-0.210
6.824,-0.220
6.828,-0.175
6.832,-0.195
6.836,-0.175
6.840,-0.170
6.844,-0.190
6.848,-0.190
6.852,-0.203
6.856,-0.182
6.860,-0.182
6.864,-0.182
6.868,-0.140
6.872,-0.163
6.876,-0.158
6.880,-0.190
6.884,-0.215
6.888,-0.182
6.892,-0.182
6.896,-0.185
6.900,-0.175
6.904,-0.147
6.908,-0.150
6.912,-0.150
6.916,-0.170
6.920,-0.163
6.924,-0.163
6.928,-0.170
6.932,-0.158
6.936,-0.135
6.940,-0.175
6.944,-0.198
6.948,-0.188
6.952,-0.182
6.956,-0.203
6.960,-0.203
6.964,-0.158
6.968,-0.160
6.972,-0.198
6.976,-0.163
6.980,-0.200
6.984,-0.182
6.988,-0.200
6.992,-0.177
6.996,-0.135
7.000,-0.125
7.004,-0.090
7.008,-0.113
7.012,-0.075
7.016,-0.090
7.020,-0.050
7.024,-0.020
7.028,0.010
7.032,0.033
7.036,0.077
7.040,0.087
7.044,0.110
7.048,0.095
7.052,0.072
7.056,0.107
7.060,0.135
7.064,0.120
7.068,0.140
7.072,0.122
7.076,0.113
7.080,0.062
7.084,0.035
7.088,0.058
7.092,0.052
7.096,0.062
7.100,0.070
7.104,0.062
7.108,0.070
7.112,0.033
7.116,0.025
7.120,0.020
7.124,0.040
7.128,0.022
7.132,0.058
7.136,0.075
7.140,0.060
7.144,0.015
7.148,0.025
7.152,0.010
7.156,0.015
7.160,0.050
7.164,0.028
7.168,0.022
7.172,0.022
7.176,0.058
7.180,0.022
7.184,0.033
7.188,-0.028
7.192,0.025
7.196,0.000
7.200,0.033
7.204,-0.010
7.208,0.020
7.212,-0.010
7.216,-0.020
7.220,-0.015
7.224,0.013
7.228,-0.010
7.232,0.000
7.236,0.000
7.240,-0.037
7.244,-0.020
7.248,-0.037
7.252,-0.050
7.256,-0.062
7.260,-0.072
7.264,-0.062
7.268,-0.020
7.272,-0.033
7.276,-0.070
7.280,-0.075
7.284,-0.065
7.288,-0.077
7.292,-0.065
7.296,-0.113
7.300,-0.070
7.304,-0.050
7.308,-0.062
7.312,-0.072
7.316,-0.087
7.320,-0.050
7.324,-0.087
7.328,-0.095
7.332,-0.115
7.336,-0.083
7.340,-0.072
7.344,-0.085
7.348,-0.107
7.352,-0.107
7.356,-0.115
7.360,-0.100
7.364,-0.098
7.368,-0.113
7.372,-0.090
7.376,-0.107
7.380,-0.107
7.384,-0.098
7.388,-0.125
7.392,-0.102
7.396,-0.110
7.400,-0.110
7.404,-0.098
7.408,-0.087
7.412,-0.150
7.416,-0.100
7.420,-0.122
7.424,-0.115
7.428,-0.083
7.432,-0.090
7.436,-0.098
7.440,-0.100
7.444,-0.107
7.448,-0.120
7.452,-0.128
7.456,-0.110
7.460,-0.138
7.464,-0.135
7.468,-0.100
7.472,-0.098
7.476,-0.087
7.480,-0.087
7.484,-0.135
7.488,-0.085
7.492,-0.145
7.496,-0.100
7.500,-0.102
7.504,-0.072
7.508,-0.125
7.512,-0.110
7.516,-0.115
7.520,-0.113
7.524,-0.138
7.528,-0.083
7.532,-0.107
7.536,-0.083
7.540,-0.090
7.544,-0.095
7.548,-0.113
7.552,-0.113
7.556,-0.083
7.560,-0.058
7.564,-0.060
7.568,-0.028
7.572,0.003
7.576,-0.013
7.580,-0.010
7.584,-0.020
7.588,-0.028
7.592,-0.033
7.596,-0.025
7.600,0.022
7.604,0.007
7.608,0.028
7.612,-0.048
7.616,0.028
7.620,-0.020
7.624,0.022
7.628,0.000
7.632,-0.020
7.636,0.048
7.640,0.000
7.644,-0.028
7.648,-0.050
7.652,-0.083
7.656,-0.037
7.660,-0.052
7.664,-0.013
7.668,0.022
7.672,0.010
7.676,0.037
7.680,0.013
7.684,0.052
7.688,0.065
7.692,0.060
7.696,0.147
7.700,0.190
7.704,0.328
7.708,0.575
7.712,0.912
7.716,1.320
7.720,1.762
7.724,2.197
7.728,2.485
7.732,2.500
7.736,2.260
7.740,1.810
7.744,1.308
7.748,0.848
7.752,0.477
7.756,0.225
7.760,0.087
7.764,0.048
7.768,0.035
7.772,0.045
7.776,0.022
7.780,-0.045
7.784,-0.058
7.788,-0.062
7.792,-0.098
7.796,-0.083
7.800,-0.100
7.804,-0.128
7.808,-0.120
7.812,-0.145
7.816,-0.145
7.820,-0.170
7.824,-0.135
7.828,-0.147
7.832,-0.160
7.836,-0.175
7.840,-0.172
7.844,-0.198
7.848,-0.190
7.852,-0.198
7.856,-0.200
7.860,-0.195
7.864,-0.182
7.868,-0.177
7.872,-0.175
7.876,-0.233
7.880,-0.198
7.884,-0.223
7.888,-0.203
7.892,-0.235
7.896,-0.212
7.900,-0.175
7.904,-0.152
7.908,-0.185
7.912,-0.210
7.916,-0.190
7.920,-0.203
7.924,-0.210
7.928,-0.177
7.932,-0.172
7.936,-0.190
7.940,-0.185
7.944,-0.198
7.948,-0.200
7.952,-0.200
7.956,-0.207
7.960,-0.207
7.964,-0.182
7.968,-0.138
7.972,-0.172
7.976,-0.165
7.980,-0.175
7.984,-0.210
7.988,-0.203
7.992,-0.215
7.996,-0.203
8.000,-0.195
8.004,-0.182
8.008,-0.207
8.012,-0.188
8.016,-0.172
8.020,-0.198
8.024,-0.203
8.028,-0.182
8.032,-0.152
8.036,-0.182
8.040,-0.138
8.044,-0.163
8.048,-0.172
8.052,-0.150
8.056,-0.140
8.060,-0.098
8.064,-0.075
8.068,-0.010
8.072,-0.010
8.076,0.040
8.080,0.022
8.084,0.052
8.088,0.037
8.092,0.058
8.096,0.075
8.100,0.113
8.104,0.072
8.108,0.062
8.112,0.090
8.116,0.028
8.120,0.035
8.124,0.050
8.128,0.028
8.132,0.035
8.136,0.037
8.140,0.040
8.144,-0.020
8.148,-0.015
8.152,0.003
8.156,0.007
8.160,-0.028
8.164,0.025
8.168,0.020
8.172,0.007
8.176,0.010
8.180,0.000
8.184,-0.020
8.188,-0.007
8.192,0.010
8.196,-0.013
8.200,0.013
8.204,0.015
8.208,-0.013
8.212,0.022
8.216,-0.020
8.220,-0.040
8.224,-0.048
8.228,0.003
8.232,-0.025
8.236,-0.007
8.240,-0.045
8.244,-0.048
8.248,-0.072
8.252,-0.115
8.256,-0.075
8.260,-0.062
8.264,-0.060
8.268,-0.045
8.272,-0.035
8.276,-0.077
8.280,-0.072
8.284,-0.115
8.288,-0.075
8.292,-0.085
8.296,-0.095
8.300,-0.070
8.304,-0.072
8.308,-0.100
8.312,-0.095
8.316,-0.115
8.320,-0.122
8.324,-0.102
8.328,-0.085
8.332,-0.077
8.336,-0.098
8.340,-0.090
8.344,-0.125
8.348,-0.122
8.352,-0.150
8.356,-0.133
8.360,-0.120
8.364,-0.102
8.368,-0.070
8.372,-0.113
8.376,-0.125
8.380,-0.150
8.384,-0.147
8.388,-0.138
8.392,-0.128
8.396,-0.113
8.400,-0.077
8.404,-0.113
8.408,-0.113
8.412,-0.140
8.416,-0.133
8.420,-0.128
8.424,-0.135
8.428,-0.147
8.432,-0.138
8.436,-0.145
8.440,-0.107
8.444,-0.140
8.448,-0.122
8.452,-0.128
8.456,-0.110
8.460,-0.120
8.464,-0.113
8.468,-0.140
8.472,-0.152
8.476,-0.140
8.480,-0.152
8.484,-0.158
8.488,-0.163
8.492,-0.160
8.496,-0.140
8.500,-0.138
8.504,-0.122
8.508,-0.133
8.512,-0.115
8.516,-0.163
8.520,-0.163
8.524,-0.147
8.528,-0.172
8.532,-0.170
8.536,-0.133
8.540,-0.125
8.544,-0.165
8.548,-0.170
8.552,-0.190
8.556,-0.147
8.560,-0.165
8.564,-0.163
8.568,-0.113
8.572,-0.147
8.576,-0.128
8.580,-0.163
8.584,-0.158
8.588,-0.165
8.592,-0.138
8.596,-0.100
8.600,-0.065
8.604,-0.090
8.608,-0.083
8.612,-0.115
8.616,-0.095
8.620,-0.052
8.624,-0.062
8.628,-0.062
8.632,-0.052
8.636,-0.058
8.640,-0.037
8.644,-0.050
8.648,-0.060
8.652,-0.075
8.656,-0.058
8.660,-0.060
8.664,-0.050
8.668,-0.022
8.672,-0.035
8.676,-0.070
8.680,-0.040
8.684,-0.087
8.688,-0.107
8.692,-0.077
8.696,-0.077
8.700,-0.070
8.704,-0.075
8.708,-0.050
8.712,-0.077
8.716,-0.058
8.720,-0.062
8.724,-0.025
8.728,-0.033
8.732,-0.013
8.736,0.003
8.740,0.025
8.744,0.048
8.748,0.075
8.752,0.225
8.756,0.388
8.760,0.665
8.764,1.062
8.768,1.475
8.772,1.925
8.776,2.250
8.780,2.390
8.784,2.310
8.788,1.995
8.792,1.522
8.796,1.113
8.800,0.698
8.804,0.385
8.808,0.138
8.812,-0.033
8.816,-0.062
8.820,-0.095
8.824,-0.107
8.828,-0.125
8.832,-0.110
8.836,-0.147
8.840,-0.160
8.844,-0.198
8.848,-0.250
8.852,-0.225
8.856,-0.212
8.860,-0.207
8.864,-0.233
8.868,-0.220
8.872,-0.250
8.876,-0.247
8.880,-0.237
8.884,-0.287
8.888,-0.273
8.892,-0.295
8.896,-0.273
8.900,-0.278
8.904,-0.273
8.908,-0.270
8.912,-0.285
8.916,-0.297
8.920,-0.300
8.924,-0.300
8.928,-0.323
8.932,-0.287
8.936,-0.297
8.940,-0.287
8.944,-0.307
8.948,-0.315
8.952,-0.340
8.956,-0.295
8.960,-0.285
8.964,-0.307
8.968,-0.273
8.972,-0.320
8.976,-0.302
8.980,-0.325
8.984,-0.315
8.988,-0.310
8.992,-0.302
8.996,-0.323
9.000,-0.282
9.004,-0.270
9.008,-0.265
9.012,-0.302
9.016,-0.297
9.020,-0.295
9.024,-0.290
9.028,-0.307
9.032,-0.263
9.036,-0.247
9.040,-0.233
9.044,-0.290
9.048,-0.312
9.052,-0.312
9.056,-0.302
9.060,-0.290
9.064,-0.315
9.068,-0.250
9.072,-0.307
9.076,-0.310
9.080,-0.302
9.084,-0.340
9.088,-0.323
9.092,-0.295
9.096,-0.278
9.100,-0.247
9.104,-0.258
9.108,-0.240
9.112,-0.237
9.116,-0.215
9.120,-0.207
9.124,-0.165
9.128,-0.122
9.132,-0.083
9.136,-0.095
9.140,-0.050
9.144,-0.052
9.148,-0.020
9.152,-0.060
9.156,-0.050
9.160,-0.065
9.164,-0.028
9.168,-0.010
9.172,-0.007
9.176,-0.015
9.180,-0.058
9.184,-0.065
9.188,-0.058
9.192,-0.085
9.196,-0.075
9.200,-0.077
9.204,-0.070
9.208,-0.095
9.212,-0.107
9.216,-0.098
9.220,-0.087
9.224,-0.125
9.228,-0.102
9.232,-0.083
9.236,-0.085
9.240,-0.100
9.244,-0.133
9.248,-0.095
9.252,-0.147
9.256,-0.135
9.260,-0.138
9.264,-0.120
9.268,-0.083
9.272,-0.133
9.276,-0.125
9.280,-0.125
9.284,-0.128
9.288,-0.113
9.292,-0.138
9.296,-0.120
9.300,-0.135
9.304,-0.100
9.308,-0.128
9.312,-0.125
9.316,-0.182
9.320,-0.165
9.324,-0.150
9.328,-0.172
9.332,-0.172
9.336,-0.152
9.340,-0.165
9.344,-0.200
9.348,-0.203
9.352,-0.233
9.356,-0.212
9.360,-0.207
9.364,-0.207
9.368,-0.215
9.372,-0.223
9.376,-0.198
9.380,-0.225
9.384,-0.247
9.388,-0.240
9.392,-0.245
9.396,-0.212
9.400,-0.200
9.404,-0.203
9.408,-0.225
9.412,-0.207
9.416,-0.240
9.420,-0.237
9.424,-0.235
9.428,-0.247
9.432,-0.260
9.436,-0.235
9.440,-0.235
9.444,-0.228
9.448,-0.223
9.452,-0.270
9.456,-0.275
9.460,-0.235
9.464,-0.225
9.468,-0.225
9.472,-0.263
9.476,-0.237
9.480,-0.297
9.484,-0.275
9.488,-0.270
9.492,-0.258
9.496,-0.297
9.500,-0.275
9.504,-0.287
9.508,-0.263
9.512,-0.295
9.516,-0.307
9.520,-0.310
9.524,-0.312
9.528,-0.275
9.532,-0.263
9.536,-0.253
9.540,-0.285
9.544,-0.273
9.548,-0.265
9.552,-0.278
9.556,-0.297
9.560,-0.265
9.564,-0.290
9.568,-0.273
9.572,-0.270
9.576,-0.312
9.580,-0.282
9.584,-0.333
9.588,-0.323
9.592,-0.335
9.596,-0.287
9.600,-0.247
9.604,-0.302
9.608,-0.315
9.612,-0.307
9.616,-0.307
9.620,-0.312
9.624,-0.315
9.628,-0.302
9.632,-0.312
9.636,-0.275
9.640,-0.297
9.644,-0.282
9.648,-0.312
9.652,-0.315
9.656,-0.265
9.660,-0.320
9.664,-0.270
9.668,-0.240
9.672,-0.253
9.676,-0.285
9.680,-0.290
9.684,-0.300
9.688,-0.297
9.692,-0.312
9.696,-0.273
9.700,-0.237
9.704,-0.228
9.708,-0.225
9.712,-0.207
9.716,-0.228
9.720,-0.228
9.724,-0.215
9.728,-0.228
9.732,-0.210
9.736,-0.182
9.740,-0.212
9.744,-0.185
9.748,-0.182
9.752,-0.203
9.756,-0.235
9.760,-0.172
9.764,-0.198
9.768,-0.145
9.772,-0.207
9.776,-0.210
9.780,-0.203
9.784,-0.235
9.788,-0.260
9.792,-0.228
9.796,-0.253
9.800,-0.170
9.804,-0.200
9.808,-0.190
9.812,-0.185
9.816,-0.207
9.820,-0.207
9.824,-0.182
9.828,-0.177
9.832,-0.138
9.836,-0.122
9.840,-0.135
9.844,-0.135
9.848,-0.133
9.852,-0.052
9.856,0.058
9.860,0.278
9.864,0.588
9.868,1.073
9.872,1.585
9.876,2.047
9.880,2.322
9.884,2.220
9.888,1.827
9.892,1.235
9.896,0.698
9.900,0.195
9.904,-0.113
9.908,-0.258
9.912,-0.302
9.916,-0.287
9.920,-0.253
9.924,-0.223
9.928,-0.235
9.932,-0.247
9.936,-0.245
9.940,-0.237
9.944,-0.282
9.948,-0.320
9.952,-0.323
9.956,-0.300
9.960,-0.320
9.964,-0.347
9.968,-0.378
9.972,-0.357
9.976,-0.388
9.980,-0.352
9.984,-0.360
9.988,-0.362
9.992,-0.375
9.996,-0.375
10.000,-0.350
10.004,-0.390
10.008,-0.352
10.012,-0.372
10.016,-0.383
10.020,-0.375
10.024,-0.333
10.028,-0.365
10.032,-0.365
10.036,-0.338
10.040,-0.370
10.044,-0.333
10.048,-0.362
10.052,-0.378
10.056,-0.390
10.060,-0.375
10.064,-0.362
10.068,-0.323
10.072,-0.340
10.076,-0.340
10.080,-0.325
10.084,-0.347
10.088,-0.323
10.092,-0.350
10.096,-0.312
10.100,-0.297
10.104,-0.312
10.108,-0.297
10.112,-0.352
10.116,-0.345
10.120,-0.335
10.124,-0.335
10.128,-0.340
10.132,-0.287
10.136,-0.302
10.140,-0.302
10.144,-0.328
10.148,-0.333
10.152,-0.352
10.156,-0.352
10.160,-0.340
10.164,-0.352
10.168,-0.352
10.172,-0.345
10.176,-0.357
10.180,-0.347
10.184,-0.340
10.188,-0.340
10.192,-0.340
10.196,-0.320
10.200,-0.263
10.204,-0.282
10.208,-0.260
10.212,-0.245
10.216,-0.273
10.220,-0.198
10.224,-0.150
10.228,-0.175
10.232,-0.072
10.236,-0.048
10.240,-0.070
10.244,-0.085
10.248,-0.050
10.252,-0.060
10.256,-0.040
10.260,-0.033
10.264,0.013
10.268,-0.020
10.272,-0.013
10.276,-0.037
10.280,-0.075
10.284,-0.107
10.288,-0.107
10.292,-0.077
10.296,-0.100
10.300,-0.083
10.304,-0.102
10.308,-0.087
10.312,-0.113
10.316,-0.133
10.320,-0.107
10.324,-0.113
10.328,-0.045
10.332,-0.098
10.336,-0.087
10.340,-0.048
10.344,-0.110
10.348,-0.102
10.352,-0.140
10.356,-0.072
10.360,-0.077
10.364,-0.113
10.368,-0.085
10.372,-0.087
10.376,-0.085
10.380,-0.125
10.384,-0.138
10.388,-0.128
10.392,-0.102
10.396,-0.125
10.400,-0.100
10.404,-0.100
10.408,-0.120
10.412,-0.145
10.416,-0.177
10.420,-0.147
10.424,-0.165
10.428,-0.110
10.432,-0.100
10.436,-0.133
10.440,-0.128
10.444,-0.163
10.448,-0.170
10.452,-0.185
10.456,-0.182
10.460,-0.160
10.464,-0.122
10.468,-0.150
10.472,-0.182
10.476,-0.182
10.480,-0.177
10.484,-0.182
10.488,-0.233
10.492,-0.182
10.496,-0.163
10.500,-0.195
10.504,-0.190
10.508,-0.175
10.512,-0.237
10.516,-0.220
10.520,-0.225
10.524,-0.223
10.528,-0.198
10.532,-0.163
10.536,-0.188
10.540,-0.177
10.544,-0.188
10.548,-0.220
10.552,-0.233
10.556,-0.200
10.560,-0.225
10.564,-0.188
10.568,-0.190
10.572,-0.177
10.576,-0.190
10.580,-0.203
10.584,-0.215
10.588,-0.220
10.592,-0.237
10.596,-0.228
10.600,-0.195
10.604,-0.182
10.608,-0.225
10.612,-0.228
10.616,-0.245
10.620,-0.195
10.624,-0.225
10.628,-0.200
10.632,-0.170
10.636,-0.160
10.640,-0.188
10.644,-0.175
10.648,-0.200
10.652,-0.207
10.656,-0.172
10.660,-0.195
10.664,-0.250
10.668,-0.163
10.672,-0.207
10.676,-0.223
10.680,-0.225
10.684,-0.225
10.688,-0.237
10.692,-0.235
10.696,-0.210
10.700,-0.200
10.704,-0.212
10.708,-0.212
10.712,-0.215
10.716,-0.182
10.720,-0.233
10.724,-0.225
10.728,-0.210
10.732,-0.195
10.736,-0.200
10.740,-0.233
10.744,-0.210
10.748,-0.200
10.752,-0.240
10.756,-0.188
10.760,-0.188
10.764,-0.160
10.768,-0.147
10.772,-0.145
10.776,-0.177
10.780,-0.140
10.784,-0.163
10.788,-0.140
10.792,-0.135
10.796,-0.133
10.800,-0.095
10.804,-0.125
10.808,-0.095
10.812,-0.120
10.816,-0.125
10.820,-0.110
10.824,-0.110
10.828,-0.110
10.832,-0.095
10.836,-0.065
10.840,-0.100
10.844,-0.100
10.848,-0.133
10.852,-0.147
10.856,-0.125
10.860,-0.113
10.864,-0.135
10.868,-0.100
10.872,-0.095
10.876,-0.128
10.880,-0.163
10.884,-0.128
10.888,-0.125
10.892,-0.107
10.896,-0.100
10.900,-0.060
10.904,-0.065
10.908,-0.062
10.912,-0.015
10.916,0.013
10.920,0.138
10.924,0.335
10.928,0.698
10.932,1.145
10.936,1.690
10.940,2.163
10.944,2.458
10.948,2.458
10.952,2.107
10.956,1.600
10.960,1.010
10.964,0.573
10.968,0.163
10.972,-0.075
10.976,-0.140
10.980,-0.110
10.984,-0.107
10.988,-0.120
10.992,-0.133
10.996,-0.110
11.000,-0.135
11.004,-0.182
11.008,-0.188
11.012,-0.207
11.016,-0.228
11.020,-0.245
11.024,-0.245
11.028,-0.225
11.032,-0.198
11.036,-0.212
11.040,-0.235
11.044,-0.250
11.048,-0.263
11.052,-0.278
11.056,-0.300
11.060,-0.258
11.064,-0.200
11.068,-0.228
11.072,-0.295
11.076,-0.278
11.080,-0.275
11.084,-0.315
11.088,-0.320
11.092,-0.287
11.096,-0.273
11.100,-0.273
11.104,-0.245
11.108,-0.260
11.112,-0.290
11.116,-0.273
11.120,-0.278
11.124,-0.278
11.128,-0.285
11.132,-0.253
11.136,-0.265
11.140,-0.282
11.144,-0.275
11.148,-0.290
11.152,-0.320
11.156,-0.275
11.160,-0.270
11.164,-0.253
11.168,-0.258
11.172,-0.263
11.176,-0.265
11.180,-0.300
11.184,-0.270
11.188,-0.290
11.192,-0.223
11.196,-0.278
11.200,-0.253
11.204,-0.263
11.208,-0.250
11.212,-0.270
11.216,-0.275
11.220,-0.333
11.224,-0.307
11.228,-0.250
11.232,-0.278
11.236,-0.275
11.240,-0.307
11.244,-0.273
11.248,-0.297
11.252,-0.312
11.256,-0.297
11.260,-0.237
11.264,-0.212
11.268,-0.212
11.272,-0.207
11.276,-0.140
11.280,-0.125
11.284,-0.128
11.288,-0.158
11.292,-0.077
11.296,-0.095
11.300,-0.020
11.304,0.000
11.308,-0.025
11.312,0.010
11.316,-0.028
11.320,-0.015
11.324,-0.040
11.328,-0.035
11.332,-0.048
11.336,-0.040
11.340,-0.035
11.344,-0.052
11.348,-0.075
11.352,-0.072
11.356,-0.077
11.360,-0.058
11.364,-0.083
11.368,-0.040
11.372,-0.052
11.376,-0.100
11.380,-0.062
11.384,-0.072
11.388,-0.077
11.392,-0.060
11.396,-0.062
11.400,-0.045
11.404,-0.062
11.408,-0.065
11.412,-0.060
11.416,-0.100
11.420,-0.095
11.424,-0.083
11.428,-0.098
11.432,-0.058
11.436,-0.065
11.440,-0.085
11.444,-0.085
11.448,-0.100
11.452,-0.110
11.456,-0.098
11.460,-0.077
11.464,-0.087
11.468,-0.070
11.472,-0.062
11.476,-0.083
11.480,-0.122
11.484,-0.115
11.488,-0.122
11.492,-0.100
11.496,-0.125
11.500,-0.113
11.504,-0.107
11.508,-0.107
11.512,-0.125
11.516,-0.163
11.520,-0.147
11.524,-0.165
11.528,-0.133
11.532,-0.147
11.536,-0.107
11.540,-0.140
11.544,-0.175
11.548,-0.177
11.552,-0.172
11.556,-0.177
11.560,-0.163
11.564,-0.152
11.568,-0.152
11.572,-0.172
11.576,-0.158
11.580,-0.190
11.584,-0.223
11.588,-0.177
11.592,-0.190
11.596,-0.172
11.600,-0.158
11.604,-0.145
11.608,-0.188
11.612,-0.160
11.616,-0.182
11.620,-0.185
11.624,-0.198
11.628,-0.177
11.632,-0.165
11.636,-0.138
11.640,-0.175
11.644,-0.188
11.648,-0.188
11.652,-0.195
11.656,-0.200
11.660,-0.177
11.664,-0.165
11.668,-0.182
11.672,-0.165
11.676,-0.177
11.680,-0.200
11.684,-0.198
11.688,-0.190
11.692,-0.225
11.696,-0.188
11.700,-0.198
11.704,-0.163
11.708,-0.207
11.712,-0.175
11.716,-0.215
11.720,-0.223
11.724,-0.198
11.728,-0.185
11.732,-0.165
11.736,-0.172
11.740,-0.172
11.744,-0.175
11.748,-0.195
11.752,-0.172
11.756,-0.175
11.760,-0.190
11.764,-0.182
11.768,-0.145
11.772,-0.125
11.776,-0.177
11.780,-0.152
11.784,-0.185
11.788,-0.188
11.792,-0.163
11.796,-0.165
11.800,-0.163
11.804,-0.125
11.808,-0.113
11.812,-0.145
11.816,-0.138
11.820,-0.147
11.824,-0.140
11.828,-0.107
11.832,-0.095
11.836,-0.077
11.840,-0.090
11.844,-0.083
11.848,-0.100
11.852,-0.083
11.856,-0.113
11.860,-0.087
11.864,-0.050
11.868,-0.033
11.872,-0.020
11.876,-0.048
11.880,-0.033
11.884,-0.077
11.888,-0.070
11.892,-0.065
11.896,-0.085
11.900,-0.048
11.904,-0.075
11.908,-0.087
11.912,-0.133
11.916,-0.140
11.920,-0.138
11.924,-0.140
11.928,-0.098
11.932,-0.090
11.936,-0.100
11.940,-0.095
11.944,-0.087
11.948,-0.058
11.952,-0.052
11.956,-0.040
11.960,-0.037
11.964,0.015
11.968,0.107
11.972,0.275
11.976,0.525
11.980,0.863
11.984,1.262
11.988,1.690
11.992,2.078
11.996,2.250
12.000,2.175
12.004,1.815
12.008,1.375
12.012,0.802
12.016,0.375
12.020,0.152
12.024,-0.050
12.028,-0.070
12.032,-0.070
12.036,-0.100
12.040,-0.083
12.044,-0.075
12.048,-0.128
12.052,-0.158
12.056,-0.163
12.060,-0.182
12.064,-0.172
12.068,-0.207
12.072,-0.188
12.076,-0.240
12.080,-0.235
12.084,-0.273
12.088,-0.282
12.092,-0.250
12.096,-0.240
12.100,-0.273
12.104,-0.225
12.108,-0.273
12.112,-0.282
12.116,-0.312
12.120,-0.300
12.124,-0.285
12.128,-0.290
12.132,-0.260
12.136,-0.253
12.140,-0.290
12.144,-0.282
12.148,-0.250
12.152,-0.282
12.156,-0.278
12.160,-0.312
12.164,-0.258
12.168,-0.265
12.172,-0.273
12.176,-0.278
12.180,-0.273
12.184,-0.328
12.188,-0.302
12.192,-0.250
12.196,-0.275
12.200,-0.285
12.204,-0.247
12.208,-0.247
12.212,-0.300
12.216,-0.297
12.220,-0.278
12.224,-0.300
12.228,-0.275
12.232,-0.287
12.236,-0.250
12.240,-0.247
12.244,-0.265
12.248,-0.315
12.252,-0.307
12.256,-0.295
12.260,-0.300
12.264,-0.287
12.268,-0.247
12.272,-0.265
12.276,-0.282
12.280,-0.273
12.284,-0.290
12.288,-0.287
12.292,-0.310
12.296,-0.237
12.300,-0.265
12.304,-0.247
12.308,-0.225
12.312,-0.253
12.316,-0.247
12.320,-0.250
12.324,-0.190
12.328,-0.170
12.332,-0.125
12.336,-0.077
12.340,-0.048
12.344,-0.052
12.348,-0.058
12.352,-0.040
12.356,-0.033
12.360,-0.040
12.364,-0.015
12.368,-0.025
12.372,-0.040
12.376,-0.048
12.380,-0.048
12.384,-0.100
12.388,-0.083
12.392,-0.077
12.396,-0.070
12.400,-0.090
12.404,-0.072
12.408,-0.100
12.412,-0.113
12.416,-0.122
12.420,-0.138
12.424,-0.125
12.428,-0.133
12.432,-0.090
12.436,-0.098
12.440,-0.107
12.444,-0.120
12.448,-0.140
12.452,-0.115
12.456,-0.125
12.460,-0.107
12.464,-0.110
12.468,-0.107
12.472,-0.138
12.476,-0.122
12.480,-0.125
12.484,-0.160
12.488,-0.163
12.492,-0.133
12.496,-0.152
12.500,-0.125
12.504,-0.102
12.508,-0.160
12.512,-0.175
12.516,-0.163
12.520,-0.210
12.524,-0.147
12.528,-0.190
12.532,-0.163
12.536,-0.133
12.540,-0.190
12.544,-0.147
12.548,-0.172
12.552,-0.190
12.556,-0.247
12.560,-0.220
12.564,-0.195
12.568,-0.195
12.572,-0.190
12.576,-0.247
12.580,-0.200
12.584,-0.220
12.588,-0.265
12.592,-0.253
12.596,-0.247
12.600,-0.223
12.604,-0.220
12.608,-0.258
12.612,-0.263
12.616,-0.270
12.620,-0.237
12.624,-0.263
12.628,-0.223
12.632,-0.245
12.636,-0.240
12.640,-0.245
12.644,-0.253
12.648,-0.265
12.652,-0.275
12.656,-0.258
12.660,-0.260
12.664,-0.287
12.668,-0.278
12.672,-0.263
12.676,-0.287
12.680,-0.282
12.684,-0.287
12.688,-0.275
12.692,-0.263
12.696,-0.273
12.700,-0.287
12.704,-0.240
12.708,-0.258
12.712,-0.285
12.716,-0.335
12.720,-0.300
12.724,-0.290
12.728,-0.275
12.732,-0.250
12.736,-0.263
12.740,-0.273
12.744,-0.250
12.748,-0.295
12.752,-0.297
12.756,-0.260
12.760,-0.258
12.764,-0.278
12.768,-0.265
12.772,-0.260
12.776,-0.278
12.780,-0.265
12.784,-0.290
12.788,-0.297
12.792,-0.285
12.796,-0.270
12.800,-0.275
12.804,-0.260
12.808,-0.282
12.812,-0.265
12.816,-0.290
12.820,-0.273
12.824,-0.297
12.828,-0.275
12.832,-0.233
12.836,-0.270
12.840,-0.285
12.844,-0.265
12.848,-0.258
12.852,-0.302
12.856,-0.290
12.860,-0.263
12.864,-0.265
12.868,-0.247
12.872,-0.260
12.876,-0.247
12.880,-0.258
12.884,-0.237
12.888,-0.240
12.892,-0.223
12.896,-0.185
12.900,-0.195
12.904,-0.163
12.908,-0.207
12.912,-0.195
12.916,-0.190
12.920,-0.172
12.924,-0.188
12.928,-0.185
12.932,-0.150
12.936,-0.150
12.940,-0.138
12.944,-0.172
12.948,-0.190
12.952,-0.223
12.956,-0.195
12.960,-0.235
12.964,-0.210
12.968,-0.195
12.972,-0.235
12.976,-0.212
12.980,-0.235
12.984,-0.228
12.988,-0.235
12.992,-0.188
12.996,-0.207
13.000,-0.133
13.004,-0.138
13.008,-0.163
13.012,-0.138
13.016,-0.125
13.020,-0.035
13.024,-0.013
13.028,0.140
13.032,0.385
13.036,0.708
13.040,1.040
13.044,1.488
13.048,1.897
13.052,2.190
13.056,2.348
13.060,2.272
13.064,1.958
13.068,1.573
13.072,1.083
13.076,0.635
13.080,0.260
13.084,0.013
13.088,-0.133
13.092,-0.198
13.096,-0.210
13.100,-0.228
13.104,-0.212
13.108,-0.265
13.112,-0.282
13.116,-0.345
13.120,-0.360
13.124,-0.352
13.128,-0.345
13.132,-0.333
13.136,-0.365
13.140,-0.375
13.144,-0.400
13.148,-0.400
13.152,-0.412
13.156,-0.395
13.160,-0.390
13.164,-0.407
13.168,-0.400
13.172,-0.365
13.176,-0.410
13.180,-0.420
13.184,-0.448
13.188,-0.440
13.192,-0.410
13.196,-0.427
13.200,-0.400
13.204,-0.400
13.208,-0.412
13.212,-0.438
13.216,-0.445
13.220,-0.422
13.224,-0.445
13.228,-0.415
13.232,-0.400
13.236,-0.410
13.240,-0.448
13.244,-0.388
13.248,-0.390
13.252,-0.420
13.256,-0.383
13.260,-0.432
13.264,-0.357
13.268,-0.370
13.272,-0.410
13.276,-0.425
13.280,-0.412
13.284,-0.395
13.288,-0.400
13.292,-0.400
13.296,-0.388
13.300,-0.407
13.304,-0.372
13.308,-0.375
13.312,-0.365
13.316,-0.395
13.320,-0.425
13.324,-0.400
13.328,-0.395
13.332,-0.390
13.336,-0.378
13.340,-0.400
13.344,-0.420
13.348,-0.425
13.352,-0.407
13.356,-0.375
13.360,-0.385
13.364,-0.385
13.368,-0.365
13.372,-0.315
13.376,-0.328
13.380,-0.282
13.384,-0.278
13.388,-0.233
13.392,-0.225
13.396,-0.175
13.400,-0.150
13.404,-0.133
13.408,-0.128
13.412,-0.135
13.416,-0.135
13.420,-0.165
13.424,-0.140
13.428,-0.138
13.432,-0.095
13.436,-0.147
13.440,-0.120
13.444,-0.140
13.448,-0.177
13.452,-0.172
13.456,-0.170
13.460,-0.177
13.464,-0.165
13.468,-0.133
13.472,-0.165
13.476,-0.203
13.480,-0.165
13.484,-0.165
13.488,-0.190
13.492,-0.158
13.496,-0.177
13.500,-0.147
13.504,-0.177
13.508,-0.158
13.512,-0.175
13.516,-0.152
13.520,-0.175
13.524,-0.175
13.528,-0.150
13.532,-0.133
13.536,-0.140
13.540,-0.145
13.544,-0.163
13.548,-0.188
13.552,-0.163
13.556,-0.165
13.560,-0.145
13.564,-0.140
13.568,-0.150
13.572,-0.138
13.576,-0.163
13.580,-0.188
13.584,-0.200
13.588,-0.207
13.592,-0.207
13.596,-0.175
13.600,-0.177
13.604,-0.190
13.608,-0.188
13.612,-0.212
13.616,-0.223
13.620,-0.240
13.624,-0.225
13.628,-0.210
13.632,-0.195
13.636,-0.198
13.640,-0.220
13.644,-0.235
13.648,-0.250
13.652,-0.245
13.656,-0.250
13.660,-0.240
13.664,-0.263
13.668,-0.203
13.672,-0.237
13.676,-0.240
13.680,-0.270
13.684,-0.278
13.688,-0.273
13.692,-0.225
13.696,-0.237
13.700,-0.223
13.704,-0.250
13.708,-0.237
13.712,-0.245
13.716,-0.260
13.720,-0.275
13.724,-0.258
13.728,-0.250
13.732,-0.250
13.736,-0.253
13.740,-0.258
13.744,-0.263
13.748,-0.278
13.752,-0.278
13.756,-0.260
13.760,-0.233
13.764,-0.270
13.768,-0.260
13.772,-0.228
13.776,-0.220
13.780,-0.245
13.784,-0.290
13.788,-0.278
13.792,-0.295
13.796,-0.253
13.800,-0.245
13.804,-0.235
13.808,-0.258
13.812,-0.263
13.816,-0.297
13.820,-0.275
13.824,-0.240
13.828,-0.282
13.832,-0.253
13.836,-0.273
13.840,-0.245
13.844,-0.260
13.848,-0.302
13.852,-0.287
13.856,-0.265
13.860,-0.263
13.864,-0.260
13.868,-0.233
13.872,-0.247
13.876,-0.233
13.880,-0.240
13.884,-0.287
13.888,-0.285
13.892,-0.273
13.896,-0.250
13.900,-0.273
13.904,-0.260
13.908,-0.282
13.912,-0.265
13.916,-0.285
13.920,-0.250
13.924,-0.263
13.928,-0.247
13.932,-0.247
13.936,-0.250
13.940,-0.237
13.944,-0.275
13.948,-0.263
13.952,-0.290
13.956,-0.265
13.960,-0.235
13.964,-0.233
13.968,-0.200
13.972,-0.198
13.976,-0.188
13.980,-0.175
13.984,-0.198
13.988,-0.175
13.992,-0.165
13.996,-0.177
14.000,-0.140
14.004,-0.138
14.008,-0.145
14.012,-0.150
14.016,-0.158
14.020,-0.140
14.024,-0.138
14.028,-0.138
14.032,-0.140
14.036,-0.120
14.040,-0.128
14.044,-0.152
14.048,-0.165
14.052,-0.182
14.056,-0.165
14.060,-0.175
14.064,-0.188
14.068,-0.145
14.072,-0.160
14.076,-0.177
14.080,-0.188
14.084,-0.207
14.088,-0.170
14.092,-0.170
14.096,-0.152
14.100,-0.138
14.104,-0.102
14.108,-0.150
14.112,-0.113
14.116,-0.107
14.120,-0.120
14.124,-0.090
14.128,0.000
14.132,0.107
14.136,0.352
14.140,0.613
14.144,1.035
14.148,1.532
14.152,1.938
14.156,2.175
14.160,2.095
14.164,1.778
14.168,1.163
14.172,0.627
14.176,0.138
14.180,-0.152
14.184,-0.282
14.188,-0.285
14.192,-0.247
14.196,-0.170
14.200,-0.147
14.204,-0.185
14.208,-0.210
14.212,-0.237
14.216,-0.278
14.220,-0.315
14.224,-0.297
14.228,-0.310
14.232,-0.278
14.236,-0.265
14.240,-0.335
14.244,-0.302
14.248,-0.345
14.252,-0.340
14.256,-0.347
14.260,-0.338
14.264,-0.312
14.268,-0.312
14.272,-0.325
14.276,-0.338
14.280,-0.365
14.284,-0.338
14.288,-0.352
14.292,-0.350
14.296,-0.360
14.300,-0.328
14.304,-0.347
14.308,-0.340
14.312,-0.365
14.316,-0.362
14.320,-0.347
14.324,-0.370
14.328,-0.347
14.332,-0.340
14.336,-0.310
14.340,-0.282
14.344,-0.307
14.348,-0.333
14.352,-0.362
14.356,-0.310
14.360,-0.340
14.364,-0.315
14.368,-0.307
14.372,-0.307
14.376,-0.335
14.380,-0.360
14.384,-0.320
14.388,-0.338
14.392,-0.323
14.396,-0.320
14.400,-0.323
14.404,-0.312
14.408,-0.310
14.412,-0.335
14.416,-0.370
14.420,-0.347
14.424,-0.372
14.428,-0.340
14.432,-0.333
14.436,-0.333
14.440,-0.325
14.444,-0.333
14.448,-0.378
14.452,-0.357
14.456,-0.340
14.460,-0.345
14.464,-0.328
14.468,-0.307
14.472,-0.287
14.476,-0.323
14.480,-0.315
14.484,-0.270
14.488,-0.253
14.492,-0.247
14.496,-0.235
14.500,-0.152
14.504,-0.150
14.508,-0.128
14.512,-0.140
14.516,-0.077
14.520,-0.087
14.524,-0.075
14.528,-0.052
14.532,-0.028
14.536,-0.040
14.540,-0.037
14.544,-0.052
14.548,-0.048
14.552,-0.072
14.556,-0.077
14.560,-0.077
14.564,-0.050
14.568,-0.065
14.572,-0.075
14.576,-0.110
14.580,-0.072
14.584,-0.120
14.588,-0.098
14.592,-0.087
14.596,-0.095
14.600,-0.102
14.604,-0.077
14.608,-0.115
14.612,-0.120
14.616,-0.100
14.620,-0.120
14.624,-0.115
14.628,-0.070
14.632,-0.100
14.636,-0.107
14.640,-0.100
14.644,-0.125
14.648,-0.115
14.652,-0.140
14.656,-0.107
14.660,-0.152
14.664,-0.107
14.668,-0.113
14.672,-0.133
14.676,-0.122
14.680,-0.145
14.684,-0.140
14.688,-0.158
14.692,-0.128
14.696,-0.125
14.700,-0.152
14.704,-0.122
14.708,-0.150
14.712,-0.175
14.716,-0.177
14.720,-0.150
14.724,-0.158
14.728,-0.133
14.732,-0.147
14.736,-0.147
14.740,-0.185
14.744,-0.185
14.748,-0.212
14.752,-0.212
14.756,-0.190
14.760,-0.190
14.764,-0.170
14.768,-0.210
14.772,-0.200
14.776,-0.198
14.780,-0.223
14.784,-0.228
14.788,-0.212
14.792,-0.228
14.796,-0.203
14.800,-0.203
14.804,-0.200
14.808,-0.223
14.812,-0.225
14.816,-0.247
14.820,-0.228
14.824,-0.235
14.828,-0.198
14.832,-0.182
14.836,-0.237
14.840,-0.225
14.844,-0.233
14.848,-0.237
14.852,-0.270
14.856,-0.253
14.860,-0.250
14.864,-0.195
14.868,-0.225
14.872,-0.200
14.876,-0.228
14.880,-0.233
14.884,-0.282
14.888,-0.245
14.892,-0.235
14.896,-0.260
14.900,-0.225
14.904,-0.228
14.908,-0.235
14.912,-0.245
14.916,-0.263
14.920,-0.287
14.924,-0.237
14.928,-0.207
14.932,-0.212
14.936,-0.225
14.940,-0.237
14.944,-0.233
14.948,-0.245
14.952,-0.220
14.956,-0.247
14.960,-0.250
14.964,-0.212
14.968,-0.245
14.972,-0.240
14.976,-0.263
14.980,-0.240
14.984,-0.258
14.988,-0.237
14.992,-0.245
14.996,-0.245
15.000,-0.220
15.004,-0.185
15.008,-0.245
15.012,-0.245
15.016,-0.245
15.020,-0.228
15.024,-0.212
15.028,-0.185
15.032,-0.177
15.036,-0.200
15.040,-0.163
15.044,-0.138
15.048,-0.152
15.052,-0.170
15.056,-0.175
15.060,-0.170
15.064,-0.160
15.068,-0.128
15.072,-0.120
15.076,-0.150
15.080,-0.145
15.084,-0.147
15.088,-0.138
15.092,-0.163
15.096,-0.122
15.100,-0.072
15.104,-0.098
15.108,-0.115
15.112,-0.113
15.116,-0.175
15.120,-0.182
15.124,-0.185
15.128,-0.175
15.132,-0.172
15.136,-0.185
15.140,-0.172
15.144,-0.165
15.148,-0.185
15.152,-0.177
15.156,-0.188
15.160,-0.163
15.164,-0.120
15.168,-0.087
15.172,-0.115
15.176,-0.098
15.180,-0.085
15.184,-0.033
15.188,0.165
15.192,0.425
15.196,0.858
15.200,1.323
15.204,1.798
15.208,2.050
15.212,1.962
15.216,1.583
15.220,1.050
15.224,0.520
15.228,0.113
15.232,-0.138
15.236,-0.195
15.240,-0.240
15.244,-0.210
15.248,-0.198
15.252,-0.200
15.256,-0.165
15.260,-0.225
15.264,-0.228
15.268,-0.237
15.272,-0.278
15.276,-0.307
15.280,-0.285
15.284,-0.310
15.288,-0.307
15.292,-0.312
15.296,-0.335
15.300,-0.325
15.304,-0.278
15.308,-0.315
15.312,-0.360
15.316,-0.328
15.320,-0.378
15.324,-0.335
15.328,-0.365
15.332,-0.350
15.336,-0.360
15.340,-0.345
15.344,-0.340
15.348,-0.372
15.352,-0.383
15.356,-0.375
15.360,-0.370
15.364,-0.310
15.368,-0.378
15.372,-0.347
15.376,-0.365
15.380,-0.378
15.384,-0.362
15.388,-0.335
15.392,-0.345
15.396,-0.350
15.400,-0.328
15.404,-0.320
15.408,-0.362
15.412,-0.333
15.416,-0.378
15.420,-0.347
15.424,-0.328
15.428,-0.347
15.432,-0.310
15.436,-0.328
15.440,-0.350
15.444,-0.362
15.448,-0.352
15.452,-0.372
15.456,-0.362
15.460,-0.333
15.464,-0.333
15.468,-0.357
15.472,-0.347
15.476,-0.350
15.480,-0.370
15.484,-0.420
15.488,-0.378
15.492,-0.365
15.496,-0.335
15.500,-0.320
15.504,-0.333
15.508,-0.340
15.512,-0.350
15.516,-0.362
15.520,-0.357
15.524,-0.338
15.528,-0.302
15.532,-0.258
15.536,-0.258
15.540,-0.240
15.544,-0.200
15.548,-0.200
15.552,-0.185
15.556,-0.145
15.560,-0.107
15.564,-0.052
15.568,-0.083
15.572,-0.087
15.576,-0.090
15.580,-0.113
15.584,-0.125
15.588,-0.062
15.592,-0.107
15.596,-0.110
15.600,-0.077
15.604,-0.128
15.608,-0.135
15.612,-0.145
15.616,-0.172
15.620,-0.175
15.624,-0.188
15.628,-0.163
15.632,-0.182
15.636,-0.152
15.640,-0.128
15.644,-0.163
15.648,-0.175
15.652,-0.190
15.656,-0.182
15.660,-0.177
15.664,-0.150
15.668,-0.163
15.672,-0.160
15.676,-0.195
15.680,-0.177
15.684,-0.212
15.688,-0.212
15.692,-0.203
15.696,-0.172
15.700,-0.215
15.704,-0.163
15.708,-0.223
15.712,-0.190
15.716,-0.212
15.720,-0.225
15.724,-0.225
15.728,-0.237
15.732,-0.233
15.736,-0.190
15.740,-0.225
15.744,-0.253
15.748,-0.278
15.752,-0.258
15.756,-0.260
15.760,-0.253
15.764,-0.228
15.768,-0.225
15.772,-0.260
15.776,-0.265
15.780,-0.282
15.784,-0.290
15.788,-0.285
15.792,-0.275
15.796,-0.290
15.800,-0.258
15.804,-0.275
15.808,-0.312
15.812,-0.290
15.816,-0.315
15.820,-0.335
15.824,-0.302
15.828,-0.290
15.832,-0.315
15.836,-0.260
15.840,-0.260
15.844,-0.323
15.848,-0.320
15.852,-0.325
15.856,-0.350
15.860,-0.345
15.864,-0.340
15.868,-0.310
15.872,-0.325
15.876,-0.333
15.880,-0.345
15.884,-0.362
15.888,-0.347
15.892,-0.352
15.896,-0.352
15.900,-0.312
15.904,-0.335
15.908,-0.282
15.912,-0.345
15.916,-0.347
15.920,-0.340
15.924,-0.345
15.928,-0.347
15.932,-0.307
15.936,-0.347
15.940,-0.312
15.944,-0.325
15.948,-0.345
15.952,-0.362
15.956,-0.345
15.960,-0.323
15.964,-0.310
15.968,-0.328
15.972,-0.300
15.976,-0.345
15.980,-0.328
15.984,-0.372
15.988,-0.338
15.992,-0.328
15.996,-0.347
16.000,-0.320
16.004,-0.310
16.008,-0.347
16.012,-0.345
16.016,-0.362
16.020,-0.365
16.024,-0.350
16.028,-0.350
16.032,-0.328
16.036,-0.323
16.040,-0.340
16.044,-0.350
16.048,-0.345
16.052,-0.335
16.056,-0.323
16.060,-0.335
16.064,-0.312
16.068,-0.295
16.072,-0.282
16.076,-0.275
16.080,-0.290
16.084,-0.323
16.088,-0.278
16.092,-0.273
16.096,-0.225
16.100,-0.237
16.104,-0.247
16.108,-0.258
16.112,-0.263
16.116,-0.273
16.120,-0.223
16.124,-0.190
16.128,-0.240
16.132,-0.212
16.136,-0.200
16.140,-0.223
16.144,-0.228
16.148,-0.265
16.152,-0.275
16.156,-0.275
16.160,-0.273
16.164,-0.258
16.168,-0.250
16.172,-0.278
16.176,-0.273
16.180,-0.312
16.184,-0.275
16.188,-0.278
16.192,-0.240
16.196,-0.207
16.200,-0.198
16.204,-0.203
16.208,-0.233
16.212,-0.228
16.216,-0.200
16.220,-0.185
16.224,-0.045
16.228,0.128
16.232,0.458
16.236,0.845
16.240,1.335
16.244,1.732
16.248,2.035
16.252,2.013
16.256,1.762
16.260,1.275
16.264,0.810
16.268,0.370
16.272,0.010
16.276,-0.190
16.280,-0.263
16.284,-0.307
16.288,-0.307
16.292,-0.295
16.296,-0.275
16.300,-0.307
16.304,-0.315
16.308,-0.383
16.312,-0.388
16.316,-0.448
16.320,-0.412
16.324,-0.410
16.328,-0.395
16.332,-0.435
16.336,-0.395
16.340,-0.435
16.344,-0.420
16.348,-0.460
16.352,-0.460
16.356,-0.463
16.360,-0.470
16.364,-0.450
16.368,-0.458
16.372,-0.438
16.376,-0.472
16.380,-0.475
16.384,-0.545
16.388,-0.472
16.392,-0.477
16.396,-0.470
16.400,-0.450
16.404,-0.458
16.408,-0.482
16.412,-0.472
16.416,-0.512
16.420,-0.497
16.424,-0.477
16.428,-0.477
16.432,-0.477
16.436,-0.482
16.440,-0.460
16.444,-0.520
16.448,-0.485
16.452,-0.497
16.456,-0.470
16.460,-0.495
16.464,-0.458
16.468,-0.458
16.472,-0.460
16.476,-0.497
16.480,-0.490
16.484,-0.482
16.488,-0.495
16.492,-0.475
16.496,-0.458
16.500,-0.427
16.504,-0.453
16.508,-0.448
16.512,-0.482
16.516,-0.490
16.520,-0.460
16.524,-0.465
16.528,-0.477
16.532,-0.470
16.536,-0.453
16.540,-0.487
16.544,-0.490
16.548,-0.512
16.552,-0.515
16.556,-0.475
16.560,-0.510
16.564,-0.450
16.568,-0.470
16.572,-0.448
16.576,-0.482
16.580,-0.477
16.584,-0.472
16.588,-0.463
16.592,-0.410
16.596,-0.357
16.600,-0.345
16.604,-0.325
16.608,-0.297
16.612,-0.263
16.616,-0.290
16.620,-0.250
16.624,-0.240
16.628,-0.228
16.632,-0.200
16.636,-0.195
16.640,-0.223
16.644,-0.200
16.648,-0.225
16.652,-0.265
16.656,-0.237
16.660,-0.245
16.664,-0.240
16.668,-0.223
16.672,-0.235
16.676,-0.223
16.680,-0.273
16.684,-0.300
16.688,-0.250
16.692,-0.287
16.696,-0.245
16.700,-0.250
16.704,-0.265
16.708,-0.240
16.712,-0.250
16.716,-0.260
16.720,-0.297
16.724,-0.237
16.728,-0.258
16.732,-0.215
16.736,-0.225
16.740,-0.247
16.744,-0.250
16.748,-0.247
16.752,-0.260
16.756,-0.290
16.760,-0.270
16.764,-0.250
16.768,-0.212
16.772,-0.235
16.776,-0.250
16.780,-0.278
16.784,-0.270
16.788,-0.247
16.792,-0.265
16.796,-0.275
16.800,-0.240
16.804,-0.263
16.808,-0.312
16.812,-0.290
16.816,-0.307
16.820,-0.315
16.824,-0.290
16.828,-0.335
16.832,-0.297
16.836,-0.325
16.840,-0.307
16.844,-0.312
16.848,-0.338
16.852,-0.350
16.856,-0.345
16.860,-0.302
16.864,-0.315
16.868,-0.315
16.872,-0.350
16.876,-0.362
16.880,-0.340
16.884,-0.378
16.888,-0.347
16.892,-0.345
16.896,-0.333
16.900,-0.360
16.904,-0.328
16.908,-0.328
16.912,-0.345
16.916,-0.403
16.920,-0.378
16.924,-0.362
16.928,-0.347
16.932,-0.365
16.936,-0.340
16.940,-0.378
16.944,-0.352
16.948,-0.412
16.952,-0.415
16.956,-0.410
16.960,-0.350
16.964,-0.365
16.968,-0.360
16.972,-0.340
16.976,-0.362
16.980,-0.390
16.984,-0.372
16.988,-0.350
16.992,-0.388
16.996,-0.362
17.000,-0.328
17.004,-0.345
17.008,-0.338
17.012,-0.385
17.016,-0.412
17.020,-0.410
17.024,-0.365
17.028,-0.362
17.032,-0.350
17.036,-0.323
17.040,-0.350
17.044,-0.362
17.048,-0.378
17.052,-0.375
17.056,-0.375
17.060,-0.347
17.064,-0.362
17.068,-0.362
17.072,-0.350
17.076,-0.347
17.080,-0.378
17.084,-0.388
17.088,-0.362
17.092,-0.370
17.096,-0.335
17.100,-0.295
17.104,-0.320
17.108,-0.325
17.112,-0.357
17.116,-0.372
17.120,-0.385
17.124,-0.350
17.128,-0.365
17.132,-0.340
17.136,-0.320
17.140,-0.340
17.144,-0.357
17.148,-0.370
17.152,-0.360
17.156,-0.297
17.160,-0.375
17.164,-0.295
17.168,-0.315
17.172,-0.270
17.176,-0.278
17.180,-0.310
17.184,-0.333
17.188,-0.315
17.192,-0.302
17.196,-0.265
17.200,-0.245
17.204,-0.228
17.208,-0.235
17.212,-0.258
17.216,-0.237
17.220,-0.235
17.224,-0.233
17.228,-0.203
17.232,-0.188
17.236,-0.188
17.240,-0.172
17.244,-0.177
17.248,-0.190
17.252,-0.177
17.256,-0.177
17.260,-0.207
17.264,-0.207
17.268,-0.200
17.272,-0.228
17.276,-0.200
17.280,-0.258
17.284,-0.263
17.288,-0.237
17.292,-0.237
17.296,-0.220
17.300,-0.182
17.304,-0.228
17.308,-0.200
17.312,-0.220
17.316,-0.203
17.320,-0.188
17.324,-0.170
17.328,-0.120
17.332,-0.133
17.336,-0.147
17.340,-0.100
17.344,-0.072
17.348,0.010
17.352,0.133
17.356,0.375
17.360,0.745
17.364,1.183
17.368,1.600
17.372,2.062
17.376,2.300
17.380,2.283
17.384,2.033
17.388,1.548
17.392,0.975
17.396,0.460
17.400,0.083
17.404,-0.175
17.408,-0.273
17.412,-0.275
17.416,-0.287
17.420,-0.258
17.424,-0.240
17.428,-0.273
17.432,-0.278
17.436,-0.315
17.440,-0.335
17.444,-0.338
17.448,-0.388
17.452,-0.400
17.456,-0.357
17.460,-0.388
17.464,-0.375
17.468,-0.400
17.472,-0.378
17.476,-0.362
17.480,-0.390
17.484,-0.412
17.488,-0.432
17.492,-0.395
17.496,-0.403
17.500,-0.425
17.504,-0.372
17.508,-0.388
17.512,-0.390
17.516,-0.398
17.520,-0.383
17.524,-0.415
17.528,-0.422
17.532,-0.385
17.536,-0.362
17.540,-0.407
17.544,-0.412
17.548,-0.448
17.552,-0.420
17.556,-0.412
17.560,-0.400
17.564,-0.415
17.568,-0.378
17.572,-0.372
17.576,-0.415
17.580,-0.422
17.584,-0.410
17.588,-0.383
17.592,-0.400
17.596,-0.375
17.600,-0.365
17.604,-0.388
17.608,-0.370
17.612,-0.412
17.616,-0.400
17.620,-0.400
17.624,-0.415
17.628,-0.403
17.632,-0.360
17.636,-0.362
17.640,-0.365
17.644,-0.403
17.648,-0.420
17.652,-0.412
17.656,-0.383
17.660,-0.388
17.664,-0.395
17.668,-0.362
17.672,-0.388
17.676,-0.383
17.680,-0.410
17.684,-0.410
17.688,-0.350
17.692,-0.338
17.696,-0.310
17.700,-0.290
17.704,-0.265
17.708,-0.198
17.712,-0.210
17.716,-0.220
17.720,-0.175
17.724,-0.175
17.728,-0.163
17.732,-0.077
17.736,-0.077
17.740,-0.100
17.744,-0.128
17.748,-0.138
17.752,-0.163
17.756,-0.122
17.760,-0.122
17.764,-0.113
17.768,-0.125
17.772,-0.138
17.776,-0.115
17.780,-0.158
17.784,-0.150
17.788,-0.150
17.792,-0.145
17.796,-0.160
17.800,-0.163
17.804,-0.140
17.808,-0.160
17.812,-0.150
17.816,-0.177
17.820,-0.170
17.824,-0.177
17.828,-0.133
17.832,-0.125
17.836,-0.128
17.840,-0.138
17.844,-0.138
17.848,-0.145
17.852,-0.175
17.856,-0.190
17.860,-0.177
17.864,-0.147
17.868,-0.138
17.872,-0.160
17.876,-0.185
17.880,-0.223
17.884,-0.212
17.888,-0.195
17.892,-0.190
17.896,-0.188
17.900,-0.182
17.904,-0.220
17.908,-0.195
17.912,-0.233
17.916,-0.247
17.920,-0.253
17.924,-0.228
17.928,-0.210
17.932,-0.245
17.936,-0.225
17.940,-0.240
17.944,-0.225
17.948,-0.247
17.952,-0.247
17.956,-0.270
17.960,-0.253
17.964,-0.240
17.968,-0.258
17.972,-0.247
17.976,-0.253
17.980,-0.250
17.984,-0.265
17.988,-0.233
17.992,-0.260
17.996,-0.270
18.000,-0.212
18.004,-0.275
18.008,-0.253
18.012,-0.258
18.016,-0.282
18.020,-0.315
18.024,-0.250
18.028,-0.287
18.032,-0.258
18.036,-0.263
18.040,-0.240
18.044,-0.275
18.048,-0.265
18.052,-0.278
18.056,-0.285
18.060,-0.270
18.064,-0.253
18.068,-0.297
18.072,-0.273
18.076,-0.258
18.080,-0.297
18.084,-0.300
18.088,-0.300
18.092,-0.287
18.096,-0.295
18.100,-0.285
18.104,-0.275
18.108,-0.282
18.112,-0.297
18.116,-0.282
18.120,-0.300
18.124,-0.247
18.128,-0.282
18.132,-0.273
18.136,-0.270
18.140,-0.300
18.144,-0.278
18.148,-0.275
18.152,-0.302
18.156,-0.278
18.160,-0.290
18.164,-0.295
18.168,-0.265
18.172,-0.263
18.176,-0.265
18.180,-0.290
18.184,-0.295
18.188,-0.282
18.192,-0.265
18.196,-0.273
18.200,-0.278
18.204,-0.290
18.208,-0.320
18.212,-0.290
18.216,-0.278
18.220,-0.295
18.224,-0.287
18.228,-0.320
18.232,-0.225
18.236,-0.233
18.240,-0.300
18.244,-0.250
18.248,-0.300
18.252,-0.260
18.256,-0.278
18.260,-0.297
18.264,-0.237
18.268,-0.220
18.272,-0.212
18.276,-0.188
18.280,-0.228
18.284,-0.212
18.288,-0.247
18.292,-0.203
18.296,-0.195
18.300,-0.158
18.304,-0.170
18.308,-0.177
18.312,-0.165
18.316,-0.172
18.320,-0.152
18.324,-0.140
18.328,-0.147
18.332,-0.158
18.336,-0.125
18.340,-0.160
18.344,-0.198
18.348,-0.207
18.352,-0.200
18.356,-0.223
18.360,-0.210
18.364,-0.210
18.368,-0.188
18.372,-0.177
18.376,-0.215
18.380,-0.228
18.384,-0.207
18.388,-0.215
18.392,-0.195
18.396,-0.160
18.400,-0.172
18.404,-0.158
18.408,-0.135
18.412,-0.138
18.416,-0.175
18.420,-0.100
18.424,-0.033
18.428,0.145
18.432,0.415
18.436,0.802
18.440,1.298
18.444,1.765
18.448,2.083
18.452,2.050
18.456,1.738
18.460,1.260
18.464,0.708
18.468,0.228
18.472,-0.085
18.476,-0.223
18.480,-0.275
18.484,-0.265
18.488,-0.258
18.492,-0.220
18.496,-0.220
18.500,-0.210
18.504,-0.247
18.508,-0.263
18.512,-0.287
18.516,-0.287
18.520,-0.350
18.524,-0.333
18.528,-0.362
18.532,-0.340
18.536,-0.338
18.540,-0.323
18.544,-0.350
18.548,-0.347
18.552,-0.372
18.556,-0.398
18.560,-0.352
18.564,-0.375
18.568,-0.357
18.572,-0.375
18.576,-0.388
18.580,-0.398
18.584,-0.365
18.588,-0.378
18.592,-0.403
18.596,-0.352
18.600,-0.357
18.604,-0.378
18.608,-0.362
18.612,-0.360
18.616,-0.398
18.620,-0.383
18.624,-0.385
18.628,-0.370
18.632,-0.360
18.636,-0.362
18.640,-0.300
18.644,-0.345
18.648,-0.340
18.652,-0.390
18.656,-0.375
18.660,-0.350
18.664,-0.328
18.668,-0.350
18.672,-0.320
18.676,-0.328
18.680,-0.357
18.684,-0.388
18.688,-0.350
18.692,-0.350
18.696,-0.335
18.700,-0.365
18.704,-0.345
18.708,-0.362
18.712,-0.362
18.716,-0.375
18.720,-0.352
18.724,-0.360
18.728,-0.352
18.732,-0.323
18.736,-0.362
18.740,-0.360
18.744,-0.335
18.748,-0.335
18.752,-0.338
18.756,-0.297
18.760,-0.282
18.764,-0.237
18.768,-0.215
18.772,-0.212
18.776,-0.188
18.780,-0.177
18.784,-0.172
18.788,-0.140
18.792,-0.125
18.796,-0.128
18.800,-0.083
18.804,-0.062
18.808,-0.075
18.812,-0.087
18.816,-0.107
18.820,-0.075
18.824,-0.110
18.828,-0.107
18.832,-0.090
18.836,-0.147
18.840,-0.122
18.844,-0.133
18.848,-0.182
18.852,-0.147
18.856,-0.165
18.860,-0.163
18.864,-0.163
18.868,-0.147
18.872,-0.152
18.876,-0.163
18.880,-0.163
18.884,-0.165
18.888,-0.140
18.892,-0.175
18.896,-0.150
18.900,-0.175
18.904,-0.150
18.908,-0.198
18.912,-0.135
18.916,-0.163
18.920,-0.185
18.924,-0.200
18.928,-0.198
18.932,-0.150
18.936,-0.188
18.940,-0.165
18.944,-0.195
18.948,-0.215
18.952,-0.225
18.956,-0.233
18.960,-0.198
18.964,-0.190
18.968,-0.212
18.972,-0.190
18.976,-0.195
18.980,-0.250
18.984,-0.240
18.988,-0.240
18.992,-0.225
18.996,-0.212
19.000,-0.190
19.004,-0.233
19.008,-0.233
19.012,-0.253
19.016,-0.258
19.020,-0.270
19.024,-0.260
19.028,-0.287
19.032,-0.258
19.036,-0.233
19.040,-0.235
19.044,-0.270
19.048,-0.270
19.052,-0.287
19.056,-0.300
19.060,-0.297
19.064,-0.263
19.068,-0.278
19.072,-0.263
19.076,-0.315
19.080,-0.312
19.084,-0.320
19.088,-0.290
19.092,-0.278
19.096,-0.278
19.100,-0.295
19.104,-0.258
19.108,-0.302
19.112,-0.312
19.116,-0.352
19.120,-0.328
19.124,-0.333
19.128,-0.307
19.132,-0.310
19.136,-0.295
19.140,-0.290
19.144,-0.300
19.148,-0.302
19.152,-0.338
19.156,-0.307
19.160,-0.315
19.164,-0.278
19.168,-0.270
19.172,-0.273
19.176,-0.333
19.180,-0.297
19.184,-0.323
19.188,-0.340
19.192,-0.347
19.196,-0.302
19.200,-0.290
19.204,-0.265
19.208,-0.333
19.212,-0.290
19.216,-0.325
19.220,-0.297
19.224,-0.325
19.228,-0.300
19.232,-0.300
19.236,-0.278
19.240,-0.260
19.244,-0.290
19.248,-0.312
19.252,-0.287
19.256,-0.347
19.260,-0.338
19.264,-0.295
19.268,-0.253
19.272,-0.328
19.276,-0.307
19.280,-0.302
19.284,-0.333
19.288,-0.345
19.292,-0.340
19.296,-0.352
19.300,-0.315
19.304,-0.275
19.308,-0.315
19.312,-0.315
19.316,-0.300
19.320,-0.312
19.324,-0.328
19.328,-0.275
19.332,-0.245
19.336,-0.278
19.340,-0.273
19.344,-0.263
19.348,-0.278
19.352,-0.233
19.356,-0.245
19.360,-0.225
19.364,-0.203
19.368,-0.200
19.372,-0.210
19.376,-0.240
19.380,-0.225
19.384,-0.220
19.388,-0.233
19.392,-0.210
19.396,-0.188
19.400,-0.198
19.404,-0.195
19.408,-0.200
19.412,-0.228
19.416,-0.237
19.420,-0.247
19.424,-0.278
19.428,-0.228
19.432,-0.235
19.436,-0.278
19.440,-0.278
19.444,-0.263
19.448,-0.260
19.452,-0.250
19.456,-0.212
19.460,-0.225
19.464,-0.177
19.468,-0.185
19.472,-0.158
19.476,-0.172
19.480,-0.113
19.484,-0.072
19.488,0.085
19.492,0.385
19.496,0.738
19.500,1.228
19.504,1.758
19.508,2.087
19.512,2.175
19.516,2.040
19.520,1.603
19.524,1.087
19.528,0.590
19.532,0.198
19.536,-0.052
19.540,-0.240
19.544,-0.310
19.548,-0.282
19.552,-0.247
19.556,-0.258
19.560,-0.300
19.564,-0.275
19.568,-0.290
19.572,-0.350
19.576,-0.383
19.580,-0.357
19.584,-0.427
19.588,-0.378
19.592,-0.390
19.596,-0.383
19.600,-0.378
19.604,-0.388
19.608,-0.400
19.612,-0.400
19.616,-0.458
19.620,-0.415
19.624,-0.432
19.628,-0.415
19.632,-0.390
19.636,-0.420
19.640,-0.432
19.644,-0.438
19.648,-0.463
19.652,-0.460
19.656,-0.412
19.660,-0.410
19.664,-0.403
19.668,-0.422
19.672,-0.427
19.676,-0.440
19.680,-0.448
19.684,-0.482
19.688,-0.427
19.692,-0.412
19.696,-0.432
19.700,-0.440
19.704,-0.440
19.708,-0.427
19.712,-0.477
19.716,-0.458
19.720,-0.448
19.724,-0.407
19.728,-0.445
19.732,-0.395
19.736,-0.390
19.740,-0.370
19.744,-0.420
19.748,-0.448
19.752,-0.435
19.756,-0.400
19.760,-0.412
19.764,-0.378
19.768,-0.388
19.772,-0.425
19.776,-0.415
19.780,-0.438
19.784,-0.450
19.788,-0.458
19.792,-0.448
19.796,-0.432
19.800,-0.440
19.804,-0.435
19.808,-0.438
19.812,-0.435
19.816,-0.438
19.820,-0.465
19.824,-0.412
19.828,-0.400
19.832,-0.375
19.836,-0.357
19.840,-0.312
19.844,-0.302
19.848,-0.312
19.852,-0.273
19.856,-0.220
19.860,-0.190
19.864,-0.188
19.868,-0.188
19.872,-0.195
19.876,-0.177
19.880,-0.158
19.884,-0.220
19.888,-0.210
19.892,-0.195
19.896,-0.220
19.900,-0.237
19.904,-0.158
19.908,-0.212
19.912,-0.228
19.916,-0.250
19.920,-0.253
19.924,-0.223
19.928,-0.235
19.932,-0.260
19.936,-0.245
19.940,-0.225
19.944,-0.250
19.948,-0.273
19.952,-0.235
19.956,-0.240
19.960,-0.233
19.964,-0.273
19.968,-0.220
19.972,-0.245
19.976,-0.233
19.980,-0.235
19.984,-0.282
19.988,-0.245
19.992,-0.263
19.996,-0.225
20.000,-0.250
20.004,-0.225
20.008,-0.228
20.012,-0.273
20.016,-0.295
20.020,-0.287
20.024,-0.273
20.028,-0.237
20.032,-0.275
20.036,-0.250
20.040,-0.300
20.044,-0.312
20.048,-0.307
20.052,-0.323
20.056,-0.310
20.060,-0.310
20.064,-0.323
20.068,-0.325
20.072,-0.345
20.076,-0.323
20.080,-0.365
20.084,-0.360
20.088,-0.378
20.092,-0.347
20.096,-0.372
20.100,-0.357
20.104,-0.365
20.108,-0.365
20.112,-0.357
20.116,-0.398
20.120,-0.372
20.124,-0.385
20.128,-0.385
20.132,-0.372
20.136,-0.388
20.140,-0.378
20.144,-0.407
20.148,-0.400
20.152,-0.383
20.156,-0.395
20.160,-0.357
20.164,-0.357
20.168,-0.375
20.172,-0.388
20.176,-0.398
20.180,-0.415
20.184,-0.422
20.188,-0.425
20.192,-0.400
20.196,-0.388
20.200,-0.378
20.204,-0.388
20.208,-0.395
20.212,-0.398
20.216,-0.407
20.220,-0.422
20.224,-0.407
20.228,-0.375
20.232,-0.362
20.236,-0.388
20.240,-0.388
20.244,-0.383
20.248,-0.420
20.252,-0.398
20.256,-0.383
20.260,-0.390
20.264,-0.352
20.268,-0.338
20.272,-0.372
20.276,-0.400
20.280,-0.362
20.284,-0.362
20.288,-0.383
20.292,-0.378
20.296,-0.345
20.300,-0.323
20.304,-0.378
20.308,-0.350
20.312,-0.375
20.316,-0.385
20.320,-0.378
20.324,-0.390
20.328,-0.335
20.332,-0.350
20.336,-0.362
20.340,-0.362
20.344,-0.328
20.348,-0.378
20.352,-0.378
20.356,-0.378
20.360,-0.350
20.364,-0.345
20.368,-0.365
20.372,-0.350
20.376,-0.350
20.380,-0.347
20.384,-0.345
20.388,-0.345
20.392,-0.345
20.396,-0.338
20.400,-0.335
20.404,-0.323
20.408,-0.340
20.412,-0.335
20.416,-0.315
20.420,-0.338
20.424,-0.297
20.428,-0.302
20.432,-0.302
20.436,-0.237
20.440,-0.263
20.444,-0.297
20.448,-0.250
20.452,-0.287
20.456,-0.260
20.460,-0.245
20.464,-0.190
20.468,-0.195
20.472,-0.172
20.476,-0.198
20.480,-0.200
20.484,-0.212
20.488,-0.225
20.492,-0.207
20.496,-0.225
20.500,-0.198
20.504,-0.247
20.508,-0.223
20.512,-0.297
20.516,-0.275
20.520,-0.282
20.524,-0.273
20.528,-0.207
20.532,-0.195
20.536,-0.200
20.540,-0.228
20.544,-0.223
20.548,-0.225
20.552,-0.212
20.556,-0.190
20.560,-0.185
20.564,-0.113
20.568,-0.045
20.572,0.058
20.576,0.215
20.580,0.435
20.584,0.797
20.588,1.220
20.592,1.690
20.596,2.035
20.600,2.185
20.604,2.135
20.608,1.795
20.612,1.320
20.616,0.823
20.620,0.412
20.624,0.107
20.628,-0.113
20.632,-0.175
20.636,-0.207
20.640,-0.223
20.644,-0.253
20.648,-0.260
20.652,-0.273
20.656,-0.302
20.660,-0.312
20.664,-0.320
20.668,-0.328
20.672,-0.297
20.676,-0.350
20.680,-0.395
20.684,-0.407
20.688,-0.345
20.692,-0.398
20.696,-0.378
20.700,-0.375
20.704,-0.395
20.708,-0.400
20.712,-0.432
20.716,-0.448
20.720,-0.427
20.724,-0.458
20.728,-0.425
20.732,-0.385
20.736,-0.407
20.740,-0.425
20.744,-0.390
20.748,-0.415
20.752,-0.403
20.756,-0.412
20.760,-0.440
20.764,-0.398
20.768,-0.403
20.772,-0.383
20.776,-0.422
20.780,-0.412
20.784,-0.435
20.788,-0.400
20.792,-0.425
20.796,-0.372
20.800,-0.398
20.804,-0.378
20.808,-0.400
20.812,-0.412
20.816,-0.415
20.820,-0.400
20.824,-0.385
20.828,-0.410
20.832,-0.357
20.836,-0.362
20.840,-0.372
20.844,-0.400
20.848,-0.388
20.852,-0.395
20.856,-0.407
20.860,-0.370
20.864,-0.390
20.868,-0.360
20.872,-0.352
20.876,-0.378
20.880,-0.407
20.884,-0.422
20.888,-0.403
20.892,-0.415
20.896,-0.390
20.900,-0.378
20.904,-0.365
20.908,-0.388
20.912,-0.370
20.916,-0.365
20.920,-0.295
20.924,-0.325
20.928,-0.287
20.932,-0.247
20.936,-0.225
20.940,-0.220
20.944,-0.172
20.948,-0.182
20.952,-0.152
20.956,-0.147
20.960,-0.100
20.964,-0.107
20.968,-0.113
20.972,-0.077
20.976,-0.120
20.980,-0.090
20.984,-0.135
20.988,-0.072
20.992,-0.113
20.996,-0.087
21.000,-0.072
21.004,-0.098
21.008,-0.128
21.012,-0.100
21.016,-0.135
21.020,-0.165
21.024,-0.122
21.028,-0.133
21.032,-0.125
21.036,-0.100
21.040,-0.115
21.044,-0.150
21.048,-0.165
21.052,-0.160
21.056,-0.147
21.060,-0.140
21.064,-0.138
21.068,-0.098
21.072,-0.115
21.076,-0.122
21.080,-0.150
21.084,-0.170
21.088,-0.165
21.092,-0.150
21.096,-0.107
21.100,-0.135
21.104,-0.128
21.108,-0.145
21.112,-0.172
21.116,-0.198
21.120,-0.160
21.124,-0.147
21.128,-0.170
21.132,-0.133
21.136,-0.152
21.140,-0.172
21.144,-0.215
21.148,-0.177
21.152,-0.210
21.156,-0.223
21.160,-0.200
21.164,-0.185
21.168,-0.175
21.172,-0.198
21.176,-0.195
21.180,-0.207
21.184,-0.200
21.188,-0.258
21.192,-0.235
21.196,-0.215
21.200,-0.198
21.204,-0.228
21.208,-0.215
21.212,-0.223
21.216,-0.270
21.220,-0.228
21.224,-0.270
21.228,-0.233
21.232,-0.240
21.236,-0.212
21.240,-0.240
21.244,-0.247
21.248,-0.245
21.252,-0.278
21.256,-0.240
21.260,-0.253
21.264,-0.198
21.268,-0.265
21.272,-0.220
21.276,-0.233
21.280,-0.297
21.284,-0.247
21.288,-0.297
21.292,-0.263
21.296,-0.263
21.300,-0.215
21.304,-0.258
21.308,-0.265
21.312,-0.263
21.316,-0.263
21.320,-0.247
21.324,-0.300
21.328,-0.275
21.332,-0.278
21.336,-0.240
21.340,-0.228
21.344,-0.247
21.348,-0.258
21.352,-0.258
21.356,-0.273
21.360,-0.310
21.364,-0.263
21.368,-0.270
21.372,-0.247
21.376,-0.263
21.380,-0.290
21.384,-0.250
21.388,-0.273
21.392,-0.278
21.396,-0.250
21.400,-0.258
21.404,-0.240
21.408,-0.240
21.412,-0.258
21.416,-0.275
21.420,-0.258
21.424,-0.273
21.428,-0.233
21.432,-0.250
21.436,-0.228
21.440,-0.273
21.444,-0.240
21.448,-0.237
21.452,-0.278
21.456,-0.270
21.460,-0.237
21.464,-0.212
21.468,-0.240
21.472,-0.258
21.476,-0.260
21.480,-0.247
21.484,-0.282
21.488,-0.225
21.492,-0.228
21.496,-0.235
21.500,-0.237
21.504,-0.207
21.508,-0.210
21.512,-0.198
21.516,-0.190
21.520,-0.198
21.524,-0.175
21.528,-0.198
21.532,-0.158
21.536,-0.150
21.540,-0.152
21.544,-0.145
21.548,-0.165
21.552,-0.160
21.556,-0.122
21.560,-0.115
21.564,-0.113
21.568,-0.085
21.572,-0.062
21.576,-0.122
21.580,-0.102
21.584,-0.122
21.588,-0.102
21.592,-0.085
21.596,-0.122
21.600,-0.098
21.604,-0.125
21.608,-0.163
21.612,-0.152
21.616,-0.175
21.620,-0.177
21.624,-0.182
21.628,-0.177
21.632,-0.140
21.636,-0.128
21.640,-0.150
21.644,-0.128
21.648,-0.150
21.652,-0.133
21.656,-0.122
21.660,-0.110
21.664,-0.058
21.668,-0.083
21.672,-0.050
21.676,0.015
21.680,0.070
21.684,0.245
21.688,0.535
21.692,0.902
21.696,1.383
21.700,1.812
21.704,2.123
21.708,2.150
21.712,1.903
21.716,1.450
21.720,0.925
21.724,0.435
21.728,0.102
21.732,-0.125
21.736,-0.172
21.740,-0.182
21.744,-0.145
21.748,-0.125
21.752,-0.170
21.756,-0.165
21.760,-0.203
21.764,-0.185
21.768,-0.223
21.772,-0.223
21.776,-0.250
21.780,-0.270
21.784,-0.278
21.788,-0.287
21.792,-0.290
21.796,-0.273
21.800,-0.253
21.804,-0.270
21.808,-0.297
21.812,-0.302
21.816,-0.310
21.820,-0.302
21.824,-0.320
21.828,-0.338
21.832,-0.263
21.836,-0.265
21.840,-0.325
21.844,-0.320
21.848,-0.295
21.852,-0.307
21.856,-0.328
21.860,-0.310
21.864,-0.295
21.868,-0.290
21.872,-0.297
21.876,-0.338
21.880,-0.333
21.884,-0.333
21.888,-0.297
21.892,-0.302
21.896,-0.307
21.900,-0.333
21.904,-0.287
21.908,-0.312
21.912,-0.333
21.916,-0.325
21.920,-0.300
21.924,-0.300
21.928,-0.310
21.932,-0.260
21.936,-0.273
21.940,-0.325
21.944,-0.333
21.948,-0.315
21.952,-0.325
21.956,-0.315
21.960,-0.307
21.964,-0.287
21.968,-0.282
21.972,-0.287
21.976,-0.312
21.980,-0.315
21.984,-0.290
21.988,-0.315
21.992,-0.315
21.996,-0.297
22.000,-0.275
22.004,-0.278
22.008,-0.282
22.012,-0.302
22.016,-0.300
22.020,-0.307
22.024,-0.307
22.028,-0.233
22.032,-0.228
22.036,-0.198
22.040,-0.228
22.044,-0.220
22.048,-0.235
22.052,-0.200
22.056,-0.175
22.060,-0.122
22.064,-0.090
22.068,-0.050
22.072,-0.058
22.076,-0.033
22.080,-0.035
22.084,-0.020
22.088,-0.025
22.092,-0.052
22.096,-0.037
22.100,-0.025
22.104,-0.040
22.108,-0.040
22.112,-0.065
22.116,-0.077
22.120,-0.083
22.124,-0.062
22.128,-0.072
22.132,-0.045
22.136,-0.050
22.140,-0.062
22.144,-0.065
22.148,-0.113
22.152,-0.087
22.156,-0.102
22.160,-0.087
22.164,-0.077
22.168,-0.072
22.172,-0.060
22.176,-0.077
22.180,-0.087
22.184,-0.113
22.188,-0.090
22.192,-0.115
22.196,-0.062
22.200,-0.083
22.204,-0.085
22.208,-0.098
22.212,-0.110
22.216,-0.113
22.220,-0.115
22.224,-0.107
22.228,-0.098
22.232,-0.138
22.236,-0.125
22.240,-0.120
22.244,-0.122
22.248,-0.160
22.252,-0.165
22.256,-0.150
22.260,-0.175
22.264,-0.175
22.268,-0.128
22.272,-0.158
22.276,-0.140
22.280,-0.150
22.284,-0.158
22.288,-0.152
22.292,-0.172
22.296,-0.160
22.300,-0.152
22.304,-0.177
22.308,-0.160
22.312,-0.215
22.316,-0.207
22.320,-0.195
22.324,-0.190
22.328,-0.195
22.332,-0.165
22.336,-0.195
22.340,-0.195
22.344,-0.175
22.348,-0.200
22.352,-0.225
22.356,-0.190
22.360,-0.200
22.364,-0.190
22.368,-0.190
22.372,-0.188
22.376,-0.210
22.380,-0.210
22.384,-0.225
22.388,-0.225
22.392,-0.210
22.396,-0.195
22.400,-0.207
22.404,-0.165
22.408,-0.210
22.412,-0.200
22.416,-0.223
22.420,-0.207
22.424,-0.188
22.428,-0.163
22.432,-0.190
22.436,-0.200
22.440,-0.177
22.444,-0.198
22.448,-0.207
22.452,-0.225
22.456,-0.188
22.460,-0.198
22.464,-0.188
22.468,-0.182
22.472,-0.212
22.476,-0.210
22.480,-0.210
22.484,-0.198
22.488,-0.220
22.492,-0.212
22.496,-0.172
22.500,-0.185
22.504,-0.200
22.508,-0.215
22.512,-0.237
22.516,-0.215
22.520,-0.215
22.524,-0.200
22.528,-0.200
22.532,-0.195
22.536,-0.190
22.540,-0.233
22.544,-0.207
22.548,-0.210
22.552,-0.200
22.556,-0.172
22.560,-0.182
22.564,-0.163
22.568,-0.182
22.572,-0.177
22.576,-0.165
22.580,-0.200
22.584,-0.163
22.588,-0.158
22.592,-0.120
22.596,-0.110
22.600,-0.138
22.604,-0.125
22.608,-0.170
22.612,-0.133
22.616,-0.133
22.620,-0.128
22.624,-0.110
22.628,-0.090
22.632,-0.075
22.636,-0.087
22.640,-0.095
22.644,-0.098
22.648,-0.085
22.652,-0.100
22.656,-0.072
22.660,-0.062
22.664,-0.052
22.668,-0.050
22.672,-0.037
22.676,-0.095
22.680,-0.100
22.684,-0.165
22.688,-0.125
22.692,-0.122
22.696,-0.120
22.700,-0.113
22.704,-0.070
22.708,-0.115
22.712,-0.133
22.716,-0.095
22.720,-0.098
22.724,-0.100
22.728,-0.075
22.732,-0.028
22.736,-0.037
22.740,0.003
22.744,0.052
22.748,0.152
22.752,0.360
22.756,0.677
22.760,1.095
22.764,1.560
22.768,1.945
22.772,2.183
22.776,2.163
22.780,1.812
22.784,1.415
22.788,0.932
22.792,0.540
22.796,0.247
22.800,0.075
22.804,-0.033
22.808,-0.040
22.812,-0.070
22.816,-0.100
22.820,-0.113
22.824,-0.120
22.828,-0.125
22.832,-0.152
22.836,-0.190
22.840,-0.172
22.844,-0.207
22.848,-0.225
22.852,-0.245
22.856,-0.233
22.860,-0.240
22.864,-0.258
22.868,-0.190
22.872,-0.258
22.876,-0.247
22.880,-0.302
22.884,-0.290
22.888,-0.278
22.892,-0.273
22.896,-0.312
22.900,-0.295
22.904,-0.287
22.908,-0.290
22.912,-0.282
22.916,-0.320
22.920,-0.325
22.924,-0.325
22.928,-0.328
22.932,-0.278
22.936,-0.302
22.940,-0.287
22.944,-0.315
22.948,-0.320
22.952,-0.323
22.956,-0.310
22.960,-0.270
22.964,-0.275
22.968,-0.295
22.972,-0.235
22.976,-0.270
22.980,-0.287
22.984,-0.307
22.988,-0.300
22.992,-0.297
22.996,-0.263
23.000,-0.260
23.004,-0.250
23.008,-0.273
23.012,-0.260
23.016,-0.295
23.020,-0.295
23.024,-0.287
23.028,-0.233
23.032,-0.270
23.036,-0.260
23.040,-0.278
23.044,-0.270
23.048,-0.312
23.052,-0.275
23.056,-0.282
23.060,-0.270
23.064,-0.250
23.068,-0.275
23.072,-0.263
23.076,-0.270
23.080,-0.278
23.084,-0.278
23.088,-0.285
23.092,-0.270
23.096,-0.245
23.100,-0.203
23.104,-0.210
23.108,-0.188
23.112,-0.152
23.116,-0.182
23.120,-0.113
23.124,-0.083
23.128,-0.062
23.132,-0.048
23.136,-0.037
23.140,-0.013
23.144,-0.045
23.148,-0.007
23.152,-0.035
23.156,-0.060
23.160,-0.013
23.164,0.000
23.168,-0.028
23.172,-0.022
23.176,-0.048
23.180,-0.083
23.184,-0.100
23.188,-0.075
23.192,-0.083
23.196,-0.090
23.200,-0.040
23.204,-0.075
23.208,-0.085
23.212,-0.107
23.216,-0.087
23.220,-0.077
23.224,-0.087
23.228,-0.100
23.232,-0.062
23.236,-0.098
23.240,-0.090
23.244,-0.100
23.248,-0.113
23.252,-0.122
23.256,-0.095
23.260,-0.138
23.264,-0.107
23.268,-0.098
23.272,-0.128
23.276,-0.145
23.280,-0.147
23.284,-0.163
23.288,-0.145
23.292,-0.128
23.296,-0.147
23.300,-0.160
23.304,-0.140
23.308,-0.140
23.312,-0.185
23.316,-0.172
23.320,-0.188
23.324,-0.147
23.328,-0.175
23.332,-0.152
23.336,-0.158
23.340,-0.182
23.344,-0.190
23.348,-0.225
23.352,-0.220
23.356,-0.188
23.360,-0.245
23.364,-0.203
23.368,-0.203
23.372,-0.210
23.376,-0.207
23.380,-0.200
23.384,-0.225
23.388,-0.245
23.392,-0.225
23.396,-0.212
23.400,-0.200
23.404,-0.200
23.408,-0.233
23.412,-0.240
23.416,-0.245
23.420,-0.240
23.424,-0.240
23.428,-0.212
23.432,-0.233
23.436,-0.237
23.440,-0.237
23.444,-0.265
23.448,-0.250
23.452,-0.237
23.456,-0.273
23.460,-0.250
23.464,-0.212
23.468,-0.207
23.472,-0.225
23.476,-0.235
23.480,-0.270
23.484,-0.258
23.488,-0.237
23.492,-0.250
23.496,-0.228
23.500,-0.233
23.504,-0.228
23.508,-0.235
23.512,-0.228
23.516,-0.278
23.520,-0.287
23.524,-0.263
23.528,-0.273
23.532,-0.207
23.536,-0.225
23.540,-0.212
23.544,-0.258
23.548,-0.270
23.552,-0.270
23.556,-0.273
23.560,-0.240
23.564,-0.253
23.568,-0.258
23.572,-0.237
23.576,-0.247
23.580,-0.237
23.584,-0.265
23.588,-0.290
23.592,-0.290
23.596,-0.258
23.600,-0.270
23.604,-0.228
23.608,-0.263
23.612,-0.237
23.616,-0.225
23.620,-0.278
23.624,-0.287
23.628,-0.240
23.632,-0.250
23.636,-0.237
23.640,-0.247
23.644,-0.237
23.648,-0.250
23.652,-0.245
23.656,-0.275
23.660,-0.200
23.664,-0.185
23.668,-0.195
23.672,-0.198
23.676,-0.203
23.680,-0.182
23.684,-0.177
23.688,-0.190
23.692,-0.177
23.696,-0.133
23.700,-0.128
23.704,-0.125
23.708,-0.150
23.712,-0.125
23.716,-0.133
23.720,-0.152
23.724,-0.122
23.728,-0.135
23.732,-0.090
23.736,-0.102
23.740,-0.145
23.744,-0.138
23.748,-0.160
23.752,-0.175
23.756,-0.212
23.760,-0.198
23.764,-0.190
23.768,-0.163
23.772,-0.160
23.776,-0.163
23.780,-0.198
23.784,-0.150
23.788,-0.163
23.792,-0.160
23.796,-0.113
23.800,-0.085
23.804,-0.113
23.808,-0.098
23.812,-0.085
23.816,-0.083
23.820,-0.058
23.824,0.085
23.828,0.195
23.832,0.415
23.836,0.695
23.840,0.988
23.844,1.340
23.848,1.698
23.852,1.972
23.856,2.123
23.860,2.058
23.864,1.808
23.868,1.383
23.872,0.958
23.876,0.500
23.880,0.198
23.884,0.000
23.888,-0.120
23.892,-0.150
23.896,-0.152
23.900,-0.177
23.904,-0.150
23.908,-0.188
23.912,-0.258
23.916,-0.287
23.920,-0.290
23.924,-0.325
23.928,-0.263
23.932,-0.290
23.936,-0.278
23.940,-0.282
23.944,-0.357
23.948,-0.360
23.952,-0.335
23.956,-0.320
23.960,-0.340
23.964,-0.315
23.968,-0.323
23.972,-0.335
23.976,-0.365
23.980,-0.370
23.984,-0.388
23.988,-0.398
23.992,-0.365
23.996,-0.307
24.000,-0.378
24.004,-0.357
24.008,-0.370
24.012,-0.370
24.016,-0.370
24.020,-0.370
24.024,-0.362
24.028,-0.335
24.032,-0.323
24.036,-0.328
24.040,-0.352
24.044,-0.383
24.048,-0.360
24.052,-0.362
24.056,-0.370
24.060,-0.350
24.064,-0.312
24.068,-0.323
24.072,-0.340
24.076,-0.347
24.080,-0.352
24.084,-0.350
24.088,-0.340
24.092,-0.335
24.096,-0.328
24.100,-0.312
24.104,-0.338
24.108,-0.375
24.112,-0.370
24.116,-0.345
24.120,-0.375
24.124,-0.340
24.128,-0.328
24.132,-0.340
24.136,-0.312
24.140,-0.345
24.144,-0.347
24.148,-0.362
24.152,-0.390
24.156,-0.338
24.160,-0.390
24.164,-0.340
24.168,-0.300
24.172,-0.295
24.176,-0.325
24.180,-0.285
24.184,-0.312
24.188,-0.263
24.192,-0.228
24.196,-0.172
24.200,-0.125
24.204,-0.100
24.208,-0.102
24.212,-0.077
24.216,-0.098
24.220,-0.083
24.224,-0.075
24.228,-0.065
24.232,-0.072
24.236,-0.045
24.240,-0.052
24.244,-0.070
24.248,-0.087
24.252,-0.113
24.256,-0.070
24.260,-0.077
24.264,-0.098
24.268,-0.090
24.272,-0.075
24.276,-0.138
24.280,-0.140
24.284,-0.133
24.288,-0.113
24.292,-0.138
24.296,-0.095
24.300,-0.065
24.304,-0.087
24.308,-0.120
24.312,-0.150
24.316,-0.122
24.320,-0.133
24.324,-0.133
24.328,-0.115
24.332,-0.087
24.336,-0.098
24.340,-0.107
24.344,-0.090
24.348,-0.150
24.352,-0.165
24.356,-0.113
24.360,-0.125
24.364,-0.140
24.368,-0.115
24.372,-0.133
24.376,-0.152
24.380,-0.177
24.384,-0.152
24.388,-0.140
24.392,-0.158
24.396,-0.163
24.400,-0.150
24.404,-0.163
24.408,-0.200
24.412,-0.165
24.416,-0.198
24.420,-0.200
24.424,-0.190
24.428,-0.185
24.432,-0.172
24.436,-0.170
24.440,-0.207
24.444,-0.212
24.448,-0.185
24.452,-0.240
24.456,-0.212
24.460,-0.172
24.464,-0.215
24.468,-0.188
24.472,-0.223
24.476,-0.200
24.480,-0.198
24.484,-0.198
24.488,-0.177
24.492,-0.200
24.496,-0.207
24.500,-0.203
24.504,-0.200
24.508,-0.235
24.512,-0.258
24.516,-0.220
24.520,-0.215
24.524,-0.225
24.528,-0.228
24.532,-0.203
24.536,-0.225
24.540,-0.250
24.544,-0.210
24.548,-0.253
24.552,-0.250
24.556,-0.233
24.560,-0.212
24.564,-0.212
24.568,-0.198
24.572,-0.212
24.576,-0.220
24.580,-0.235
24.584,-0.220
24.588,-0.215
24.592,-0.223
24.596,-0.212
24.600,-0.195
24.604,-0.235
24.608,-0.240
24.612,-0.182
24.616,-0.263
24.620,-0.263
24.624,-0.253
24.628,-0.212
24.632,-0.220
24.636,-0.207
24.640,-0.237
24.644,-0.225
24.648,-0.260
24.652,-0.233
24.656,-0.215
24.660,-0.160
24.664,-0.190
24.668,-0.215
24.672,-0.207
24.676,-0.215
24.680,-0.237
24.684,-0.228
24.688,-0.210
24.692,-0.203
24.696,-0.210
24.700,-0.190
24.704,-0.182
24.708,-0.175
24.712,-0.228
24.716,-0.237
24.720,-0.235
24.724,-0.195
24.728,-0.210
24.732,-0.177
24.736,-0.237
24.740,-0.223
24.744,-0.203
24.748,-0.212
24.752,-0.190
24.756,-0.163
24.760,-0.215
24.764,-0.158
24.768,-0.195
24.772,-0.165
24.776,-0.177
24.780,-0.177
24.784,-0.185
24.788,-0.160
24.792,-0.133
24.796,-0.120
24.800,-0.113
24.804,-0.098
24.808,-0.110
24.812,-0.113
24.816,-0.140
24.820,-0.125
24.824,-0.085
24.828,-0.083
24.832,-0.050
24.836,-0.048
24.840,-0.085
24.844,-0.107
24.848,-0.102
24.852,-0.120
24.856,-0.077
24.860,-0.075
24.864,-0.120
24.868,-0.113
24.872,-0.098
24.876,-0.102
24.880,-0.133
24.884,-0.188
24.888,-0.135
24.892,-0.133
24.896,-0.125
24.900,-0.110
24.904,-0.065
24.908,-0.072
24.912,-0.098
24.916,-0.062
24.920,-0.070
24.924,0.015
24.928,0.028
24.932,0.022
24.936,0.122
24.940,0.247
24.944,0.520
24.948,0.873
24.952,1.327
24.956,1.808
24.960,2.208
24.964,2.350
24.968,2.147
24.972,1.685
24.976,1.048
24.980,0.502
24.984,0.122
24.988,-0.120
24.992,-0.200
24.996,-0.152
25.000,-0.095
25.004,-0.110
25.008,-0.085
25.012,-0.133
25.016,-0.175
25.020,-0.195
25.024,-0.207
25.028,-0.210
25.032,-0.185
25.036,-0.215
25.040,-0.200
25.044,-0.235
25.048,-0.265
25.052,-0.282
25.056,-0.278
25.060,-0.245
25.064,-0.245
25.068,-0.245
25.072,-0.253
25.076,-0.275
25.080,-0.295
25.084,-0.300
25.088,-0.307
25.092,-0.287
25.096,-0.287
25.100,-0.295
25.104,-0.290
25.108,-0.275
25.112,-0.302
25.116,-0.315
25.120,-0.312
25.124,-0.323
25.128,-0.247
25.132,-0.275
25.136,-0.273
25.140,-0.253
25.144,-0.282
25.148,-0.300
25.152,-0.325
25.156,-0.290
25.160,-0.275
25.164,-0.270
25.168,-0.223
25.172,-0.240
25.176,-0.275
25.180,-0.260
25.184,-0.275
25.188,-0.278
25.192,-0.285
25.196,-0.270
25.200,-0.253
25.204,-0.228
25.208,-0.275
25.212,-0.287
25.216,-0.275
25.220,-0.273
25.224,-0.260
25.228,-0.285
25.232,-0.260
25.236,-0.275
25.240,-0.282
25.244,-0.278
25.248,-0.312
25.252,-0.265
25.256,-0.275
25.260,-0.263
25.264,-0.250
25.268,-0.250
25.272,-0.228
25.276,-0.278
25.280,-0.260
25.284,-0.235
25.288,-0.233
25.292,-0.177
25.296,-0.150
25.300,-0.138
25.304,-0.090
25.308,-0.122
25.312,-0.062
25.316,-0.048
25.320,-0.062
25.324,-0.015
25.328,0.022
25.332,0.060
25.336,0.065
25.340,0.033
25.344,0.035
25.348,0.000
25.352,-0.015
25.356,0.010
25.360,-0.007
25.364,0.028
25.368,0.003
25.372,-0.040
25.376,-0.052
25.380,-0.040
25.384,-0.060
25.388,-0.040
25.392,-0.052
25.396,-0.015
25.400,-0.037
25.404,-0.050
25.408,-0.062
25.412,-0.058
25.416,-0.062
25.420,-0.095
25.424,-0.077
25.428,-0.065
25.432,-0.058
25.436,-0.050
25.440,-0.060
25.444,-0.083
25.448,-0.102
25.452,-0.075
25.456,-0.072
25.460,-0.050
25.464,-0.060
25.468,-0.065
25.472,-0.102
25.476,-0.090
25.480,-0.102
25.484,-0.152
25.488,-0.072
25.492,-0.090
25.496,-0.087
25.500,-0.145
25.504,-0.087
25.508,-0.125
25.512,-0.150
25.516,-0.150
25.520,-0.122
25.524,-0.115
25.528,-0.113
25.532,-0.125
25.536,-0.138
25.540,-0.158
25.544,-0.165
25.548,-0.175
25.552,-0.163
25.556,-0.160
25.560,-0.147
25.564,-0.145
25.568,-0.140
25.572,-0.170
25.576,-0.163
25.580,-0.182
25.584,-0.215
25.588,-0.210
25.592,-0.223
25.596,-0.172
25.600,-0.165
25.604,-0.163
25.608,-0.175
25.612,-0.200
25.616,-0.200
25.620,-0.220
25.624,-0.203
25.628,-0.177
25.632,-0.158
25.636,-0.158
25.640,-0.188
25.644,-0.200
25.648,-0.228
25.652,-0.240
25.656,-0.207
25.660,-0.188
25.664,-0.185
25.668,-0.170
25.672,-0.195
25.676,-0.200
25.680,-0.207
25.684,-0.235
25.688,-0.228
25.692,-0.207
25.696,-0.177
25.700,-0.190
25.704,-0.185
25.708,-0.185
25.712,-0.220
25.716,-0.223
25.720,-0.223
25.724,-0.200
25.728,-0.188
25.732,-0.207
25.736,-0.177
25.740,-0.225
25.744,-0.215
25.748,-0.182
25.752,-0.233
25.756,-0.203
25.760,-0.200
25.764,-0.215
25.768,-0.182
25.772,-0.188
25.776,-0.195
25.780,-0.198
25.784,-0.225
25.788,-0.235
25.792,-0.240
25.796,-0.188
25.800,-0.190
25.804,-0.188
25.808,-0.200
25.812,-0.233
25.816,-0.210
25.820,-0.223
25.824,-0.212
25.828,-0.220
25.832,-0.150
25.836,-0.152
25.840,-0.147
25.844,-0.152
25.848,-0.172
25.852,-0.152
25.856,-0.160
25.860,-0.138
25.864,-0.138
25.868,-0.115
25.872,-0.090
25.876,-0.100
25.880,-0.140
25.884,-0.135
25.888,-0.100
25.892,-0.140
25.896,-0.083
25.900,-0.040
25.904,-0.075
25.908,-0.045
25.912,-0.095
25.916,-0.102
25.920,-0.102
25.924,-0.098
25.928,-0.113
25.932,-0.133
25.936,-0.090
25.940,-0.135
25.944,-0.125
25.948,-0.163
25.952,-0.158
25.956,-0.150
25.960,-0.135
25.964,-0.110
25.968,-0.083
25.972,-0.095
25.976,-0.065
25.980,-0.100
25.984,-0.075
25.988,-0.033
25.992,0.010
25.996,0.138
26.000,0.338
26.004,0.647
26.008,1.065
26.012,1.452
26.016,1.850
26.020,2.038
26.024,1.970
26.028,1.670
26.032,1.212
26.036,0.760
26.040,0.352
26.044,0.058
26.048,-0.075
26.052,-0.150
26.056,-0.133
26.060,-0.128
26.064,-0.095
26.068,-0.085
26.072,-0.128
26.076,-0.175
26.080,-0.210
26.084,-0.220
26.088,-0.233
26.092,-0.207
26.096,-0.233
26.100,-0.212
26.104,-0.212
26.108,-0.220
26.112,-0.260
26.116,-0.282
26.120,-0.245
26.124,-0.250
26.128,-0.275
26.132,-0.285
26.136,-0.247
26.140,-0.278
26.144,-0.295
26.148,-0.307
26.152,-0.290
26.156,-0.310
26.160,-0.265
26.164,-0.302
26.168,-0.297
26.172,-0.312
26.176,-0.302
26.180,-0.320
26.184,-0.302
26.188,-0.312
26.192,-0.300
26.196,-0.302
26.200,-0.287
26.204,-0.270
26.208,-0.300
26.212,-0.302
26.216,-0.323
26.220,-0.290
26.224,-0.302
26.228,-0.278
26.232,-0.297
26.236,-0.275
26.240,-0.275
26.244,-0.297
26.248,-0.290
26.252,-0.320
26.256,-0.300
26.260,-0.295
26.264,-0.287
26.268,-0.265
26.272,-0.287
26.276,-0.310
26.280,-0.307
26.284,-0.287
26.288,-0.325
26.292,-0.307
26.296,-0.253
26.300,-0.270
26.304,-0.263
26.308,-0.285
26.312,-0.307
26.316,-0.297
26.320,-0.273
26.324,-0.290
26.328,-0.297
26.332,-0.240
26.336,-0.260
26.340,-0.247
26.344,-0.297
26.348,-0.325
26.352,-0.273
26.356,-0.228
26.360,-0.198
26.364,-0.160
26.368,-0.160
26.372,-0.133
26.376,-0.107
26.380,-0.113
26.384,-0.058
26.388,-0.058
26.392,-0.028
26.396,0.022
26.400,0.020
26.404,-0.007
26.408,-0.013
26.412,-0.037
26.416,-0.050
26.420,-0.052
26.424,-0.050
26.428,-0.050
26.432,-0.022
26.436,-0.058
26.440,-0.065
26.444,-0.058
26.448,-0.107
26.452,-0.110
26.456,-0.087
26.460,-0.052
26.464,-0.095
26.468,-0.070
26.472,-0.090
26.476,-0.087
26.480,-0.125
26.484,-0.122
26.488,-0.122
26.492,-0.140
26.496,-0.070
26.500,-0.110
26.504,-0.107
26.508,-0.100
26.512,-0.102
26.516,-0.120
26.520,-0.135
26.524,-0.133
26.528,-0.128
26.532,-0.122
26.536,-0.110
26.540,-0.140
26.544,-0.175
26.548,-0.147
26.552,-0.147
26.556,-0.175
26.560,-0.177
26.564,-0.135
26.568,-0.145
26.572,-0.152
26.576,-0.190
26.580,-0.215
26.584,-0.198
26.588,-0.198
26.592,-0.200
26.596,-0.190
26.600,-0.182
26.604,-0.198
26.608,-0.235
26.612,-0.223
26.616,-0.237
26.620,-0.233
26.624,-0.247
26.628,-0.198
26.632,-0.210
26.636,-0.200
26.640,-0.240
26.644,-0.258
26.648,-0.250
26.652,-0.247
26.656,-0.240
26.660,-0.260
26.664,-0.233
26.668,-0.235
26.672,-0.228
26.676,-0.235
26.680,-0.258
26.684,-0.247
26.688,-0.285
26.692,-0.253
26.696,-0.237
26.700,-0.260
26.704,-0.250
26.708,-0.250
26.712,-0.240
26.716,-0.245
26.720,-0.265
26.724,-0.290
26.728,-0.247
26.732,-0.260
26.736,-0.260
26.740,-0.263
26.744,-0.285
26.748,-0.270
26.752,-0.287
26.756,-0.278
26.760,-0.282
26.764,-0.260
26.768,-0.253
26.772,-0.260
26.776,-0.270
26.780,-0.275
26.784,-0.273
26.788,-0.300
26.792,-0.278
26.796,-0.253
26.800,-0.247
26.804,-0.260
26.808,-0.282
26.812,-0.278
26.816,-0.270
26.820,-0.297
26.824,-0.273
26.828,-0.260
26.832,-0.253
26.836,-0.270
26.840,-0.258
26.844,-0.273
26.848,-0.282
26.852,-0.285
26.856,-0.250
26.860,-0.278
26.864,-0.258
26.868,-0.253
26.872,-0.265
26.876,-0.297
26.880,-0.278
26.884,-0.290
26.888,-0.285
26.892,-0.260
26.896,-0.240
26.900,-0.275
26.904,-0.258
26.908,-0.273
26.912,-0.282
26.916,-0.270
26.920,-0.225
26.924,-0.250
26.928,-0.223
26.932,-0.195
26.936,-0.185
26.940,-0.200
26.944,-0.200
26.948,-0.212
26.952,-0.220
26.956,-0.195
26.960,-0.182
26.964,-0.188
26.968,-0.135
26.972,-0.120
26.976,-0.170
26.980,-0.177
26.984,-0.182
26.988,-0.195
26.992,-0.172
26.996,-0.160
27.000,-0.165
27.004,-0.200
27.008,-0.233
27.012,-0.212
27.016,-0.240
27.020,-0.237
27.024,-0.253
27.028,-0.195
27.032,-0.200
27.036,-0.200
27.040,-0.165
27.044,-0.163
27.048,-0.158
27.052,-0.152
27.056,-0.138
27.060,-0.072
27.064,-0.052
27.068,0.025
27.072,0.140
27.076,0.325
27.080,0.578
27.084,0.938
27.088,1.308
27.092,1.720
27.096,2.027
27.100,2.175
27.104,2.087
27.108,1.823
27.112,1.357
27.116,0.910
27.120,0.510
27.124,0.212
27.128,0.028
27.132,-0.060
27.136,-0.170
27.140,-0.195
27.144,-0.225
27.148,-0.203
27.152,-0.250
27.156,-0.275
27.160,-0.290
27.164,-0.285
27.168,-0.300
27.172,-0.315
27.176,-0.362
27.180,-0.362
27.184,-0.378
27.188,-0.360
27.192,-0.383
27.196,-0.372
27.200,-0.388
27.204,-0.385
27.208,-0.420
27.212,-0.412
27.216,-0.425
27.220,-0.422
27.224,-0.435
27.228,-0.415
27.232,-0.390
27.236,-0.425
27.240,-0.378
27.244,-0.400
27.248,-0.412
27.252,-0.412
27.256,-0.422
27.260,-0.425
27.264,-0.383
27.268,-0.388
27.272,-0.415
27.276,-0.395
27.280,-0.432
27.284,-0.425
27.288,-0.385
27.292,-0.362
27.296,-0.390
27.300,-0.385
27.304,-0.365
27.308,-0.415
27.312,-0.403
27.316,-0.412
27.320,-0.415
27.324,-0.420
27.328,-0.412
27.332,-0.372
27.336,-0.403
27.340,-0.398
27.344,-0.422
27.348,-0.403
27.352,-0.435
27.356,-0.403
27.360,-0.400
27.364,-0.370
27.368,-0.400
27.372,-0.378
27.376,-0.395
27.380,-0.432
27.384,-0.415
27.388,-0.400
27.392,-0.400
27.396,-0.400
27.400,-0.395
27.404,-0.378
27.408,-0.398
27.412,-0.390
27.416,-0.360
27.420,-0.375
27.424,-0.315
27.428,-0.315
27.432,-0.233
27.436,-0.190
27.440,-0.198
27.444,-0.188
27.448,-0.172
27.452,-0.163
27.456,-0.160
27.460,-0.138
27.464,-0.098
27.468,-0.115
27.472,-0.095
27.476,-0.138
27.480,-0.140
27.484,-0.177
27.488,-0.163
27.492,-0.175
27.496,-0.152
27.500,-0.207
27.504,-0.147
27.508,-0.165
27.512,-0.207
27.516,-0.240
27.520,-0.220
27.524,-0.188
27.528,-0.212
27.532,-0.198
27.536,-0.195
27.540,-0.185
27.544,-0.207
27.548,-0.210
27.552,-0.215
27.556,-0.225
27.560,-0.212
27.564,-0.228
27.568,-0.163
27.572,-0.220
27.576,-0.190
27.580,-0.258
27.584,-0.240
27.588,-0.263
27.592,-0.273
27.596,-0.250
27.600,-0.233
27.604,-0.212
27.608,-0.233
27.612,-0.250
27.616,-0.270
27.620,-0.282
27.624,-0.278
27.628,-0.302
27.632,-0.247
27.636,-0.282
27.640,-0.285
27.644,-0.320
27.648,-0.328
27.652,-0.297
27.656,-0.340
27.660,-0.278
27.664,-0.302
27.668,-0.312
27.672,-0.340
27.676,-0.335
27.680,-0.335
27.684,-0.338
27.688,-0.310
27.692,-0.312
27.696,-0.340
27.700,-0.325
27.704,-0.333
27.708,-0.345
27.712,-0.345
27.716,-0.352
27.720,-0.323
27.724,-0.325
27.728,-0.360
27.732,-0.323
27.736,-0.328
27.740,-0.345
27.744,-0.347
27.748,-0.338
27.752,-0.365
27.756,-0.365
27.760,-0.365
27.764,-0.333
27.768,-0.335
27.772,-0.357
27.776,-0.357
27.780,-0.357
27.784,-0.398
27.788,-0.375
27.792,-0.315
27.796,-0.323
27.800,-0.352
27.804,-0.338
27.808,-0.362
27.812,-0.352
27.816,-0.400
27.820,-0.362
27.824,-0.372
27.828,-0.352
27.832,-0.345
27.836,-0.335
27.840,-0.357
27.844,-0.350
27.848,-0.378
27.852,-0.350
27.856,-0.370
27.860,-0.360
27.864,-0.333
27.868,-0.335
27.872,-0.350
27.876,-0.378
27.880,-0.370
27.884,-0.350
27.888,-0.365
27.892,-0.352
27.896,-0.378
27.900,-0.315
27.904,-0.357
27.908,-0.385
27.912,-0.362
27.916,-0.357
27.920,-0.360
27.924,-0.362
27.928,-0.310
27.932,-0.350
27.936,-0.335
27.940,-0.362
27.944,-0.362
27.948,-0.378
27.952,-0.338
27.956,-0.338
27.960,-0.338
27.964,-0.300
27.968,-0.307
27.972,-0.335
27.976,-0.325
27.980,-0.347
27.984,-0.302
27.988,-0.335
27.992,-0.328
27.996,-0.290
28.000,-0.265
28.004,-0.278
28.008,-0.282
28.012,-0.265
28.016,-0.290
28.020,-0.282
28.024,-0.228
28.028,-0.233
28.032,-0.200
28.036,-0.200
28.040,-0.200
28.044,-0.215
28.048,-0.212
28.052,-0.200
28.056,-0.203
28.060,-0.212
28.064,-0.163
28.068,-0.185
28.072,-0.198
28.076,-0.200
28.080,-0.225
28.084,-0.273
28.088,-0.247
28.092,-0.245
28.096,-0.220
28.100,-0.225
28.104,-0.223
28.108,-0.233
28.112,-0.263
28.116,-0.275
28.120,-0.245
28.124,-0.210
28.128,-0.210
28.132,-0.158
28.136,-0.195
28.140,-0.147
28.144,-0.147
28.148,-0.128
28.152,-0.113
28.156,-0.083
28.160,0.015
28.164,0.182
28.168,0.448
28.172,0.777
28.176,1.212
28.180,1.640
28.184,1.998
28.188,2.208
28.192,2.078
28.196,1.735
28.200,1.215
28.204,0.672
28.208,0.233
28.212,-0.075
28.216,-0.237
28.220,-0.282
28.224,-0.273
28.228,-0.250
28.232,-0.237
28.236,-0.223
28.240,-0.273
28.244,-0.325
28.248,-0.350
28.252,-0.357
28.256,-0.350
28.260,-0.372
28.264,-0.295
28.268,-0.347
28.272,-0.347
28.276,-0.395
28.280,-0.383
28.284,-0.388
28.288,-0.383
28.292,-0.383
28.296,-0.378
28.300,-0.362
28.304,-0.383
28.308,-0.385
28.312,-0.395
28.316,-0.410
28.320,-0.432
28.324,-0.398
28.328,-0.400
28.332,-0.372
28.336,-0.385
28.340,-0.365
28.344,-0.427
28.348,-0.412
28.352,-0.390
28.356,-0.378
28.360,-0.398
28.364,-0.362
28.368,-0.378
28.372,-0.385
28.376,-0.378
28.380,-0.410
28.384,-0.383
28.388,-0.383
28.392,-0.383
28.396,-0.383
28.400,-0.352
28.404,-0.350
28.408,-0.378
28.412,-0.362
28.416,-0.412
28.420,-0.372
28.424,-0.357
28.428,-0.365
28.432,-0.362
28.436,-0.360
28.440,-0.338
28.444,-0.338
28.448,-0.385
28.452,-0.370
28.456,-0.375
28.460,-0.370
28.464,-0.328
28.468,-0.333
28.472,-0.365
28.476,-0.372
28.480,-0.328
28.484,-0.383
28.488,-0.345
28.492,-0.335
28.496,-0.297
28.500,-0.295
28.504,-0.270
28.508,-0.300
28.512,-0.290
28.516,-0.282
28.520,-0.263
28.524,-0.223
28.528,-0.160
28.532,-0.212
28.536,-0.147
28.540,-0.138
28.544,-0.138
28.548,-0.147
28.552,-0.125
28.556,-0.100
28.560,-0.075
28.564,-0.052
28.568,-0.037
28.572,-0.058
28.576,-0.075
28.580,-0.095
28.584,-0.095
28.588,-0.077
28.592,-0.087
28.596,-0.098
28.600,-0.110
28.604,-0.110
28.608,-0.120
28.612,-0.113
28.616,-0.113
28.620,-0.158
28.624,-0.115
28.628,-0.140
28.632,-0.135
28.636,-0.135
28.640,-0.150
28.644,-0.165
28.648,-0.138
28.652,-0.185
28.656,-0.175
28.660,-0.158
28.664,-0.135
28.668,-0.152
28.672,-0.175
28.676,-0.198
28.680,-0.128
28.684,-0.163
28.688,-0.198
28.692,-0.147
28.696,-0.163
28.700,-0.175
28.704,-0.163
28.708,-0.207
28.712,-0.195
28.716,-0.245
28.720,-0.188
28.724,-0.215
28.728,-0.160
28.732,-0.177
28.736,-0.182
28.740,-0.223
28.744,-0.195
28.748,-0.240
28.752,-0.253
28.756,-0.220
28.760,-0.207
28.764,-0.207
28.768,-0.207
28.772,-0.207
28.776,-0.212
28.780,-0.258
28.784,-0.245
28.788,-0.237
28.792,-0.260
28.796,-0.237
28.800,-0.247
28.804,-0.250
28.808,-0.263
28.812,-0.275
28.816,-0.285
28.820,-0.300
28.824,-0.282
28.828,-0.275
28.832,-0.250
28.836,-0.245
28.840,-0.250
28.844,-0.290
28.848,-0.297
28.852,-0.265
28.856,-0.287
28.860,-0.278
28.864,-0.278
28.868,-0.240
28.872,-0.297
28.876,-0.310
28.880,-0.325
28.884,-0.315
28.888,-0.310
28.892,-0.253
28.896,-0.273
28.900,-0.237
28.904,-0.270
28.908,-0.302
28.912,-0.312
28.916,-0.297
28.920,-0.258
28.924,-0.278
28.928,-0.270
28.932,-0.235
28.936,-0.270
28.940,-0.287
28.944,-0.302
28.948,-0.310
28.952,-0.315
28.956,-0.278
28.960,-0.297
28.964,-0.295
28.968,-0.297
28.972,-0.285
28.976,-0.315
28.980,-0.278
28.984,-0.290
28.988,-0.315
28.992,-0.328
28.996,-0.295
29.000,-0.263
29.004,-0.290
29.008,-0.290
29.012,-0.287
29.016,-0.302
29.020,-0.307
29.024,-0.282
29.028,-0.295
29.032,-0.295
29.036,-0.253
29.040,-0.275
29.044,-0.297
29.048,-0.260
29.052,-0.310
29.056,-0.295
29.060,-0.287
29.064,-0.250
29.068,-0.295
29.072,-0.263
29.076,-0.282
29.080,-0.300
29.084,-0.300
29.088,-0.297
29.092,-0.285
29.096,-0.253
29.100,-0.258
29.104,-0.265
29.108,-0.247
29.112,-0.237
29.116,-0.253
29.120,-0.228
29.124,-0.235
29.128,-0.195
29.132,-0.175
29.136,-0.207
29.140,-0.203
29.144,-0.198
29.148,-0.188
29.152,-0.177
29.156,-0.185
29.160,-0.170
29.164,-0.145
29.168,-0.145
29.172,-0.147
29.176,-0.110
29.180,-0.158
29.184,-0.125
29.188,-0.138
29.192,-0.140
29.196,-0.120
29.200,-0.145
29.204,-0.158
29.208,-0.190
29.212,-0.200
29.216,-0.200
29.220,-0.237
29.224,-0.215
29.228,-0.182
29.232,-0.172
29.236,-0.158
29.240,-0.152
29.244,-0.175
29.248,-0.158
29.252,-0.158
29.256,-0.138
29.260,-0.138
29.264,-0.048
29.268,0.010
29.272,0.128
29.276,0.323
29.280,0.613
29.284,0.983
29.288,1.387
29.292,1.762
29.296,2.022
29.300,2.058
29.304,1.857
29.308,1.433
29.312,0.998
29.316,0.598
29.320,0.265
29.324,0.020
29.328,-0.062
29.332,-0.125
29.336,-0.133
29.340,-0.145
29.344,-0.182
29.348,-0.163
29.352,-0.207
29.356,-0.237
29.360,-0.245
29.364,-0.247
29.368,-0.212
29.372,-0.300
29.376,-0.258
29.380,-0.300
29.384,-0.302
29.388,-0.310
29.392,-0.302
29.396,-0.328
29.400,-0.307
29.404,-0.328
29.408,-0.340
29.412,-0.315
29.416,-0.370
29.420,-0.328
29.424,-0.335
29.428,-0.328
29.432,-0.325
29.436,-0.340
29.440,-0.352
29.444,-0.323
29.448,-0.352
29.452,-0.350
29.456,-0.375
29.460,-0.350
29.464,-0.372
29.468,-0.333
29.472,-0.362
29.476,-0.357
29.480,-0.360
29.484,-0.360
29.488,-0.350
29.492,-0.340
29.496,-0.315
29.500,-0.333
29.504,-0.315
29.508,-0.312
29.512,-0.365
29.516,-0.340
29.520,-0.350
29.524,-0.350
29.528,-0.350
29.532,-0.325
29.536,-0.287
29.540,-0.338
29.544,-0.328
29.548,-0.328
29.552,-0.338
29.556,-0.325
29.560,-0.357
29.564,-0.302
29.568,-0.302
29.572,-0.320
29.576,-0.340
29.580,-0.323
29.584,-0.312
29.588,-0.325
29.592,-0.315
29.596,-0.320
29.600,-0.307
29.604,-0.325
29.608,-0.333
29.612,-0.328
29.616,-0.310
29.620,-0.278
29.624,-0.258
29.628,-0.212
29.632,-0.172
29.636,-0.188
29.640,-0.182
29.644,-0.135
29.648,-0.128
29.652,-0.087
29.656,-0.065
29.660,-0.087
29.664,-0.048
29.668,-0.050
29.672,-0.077
29.676,-0.098
29.680,-0.098
29.684,-0.083
29.688,-0.098
29.692,-0.065
29.696,-0.098
29.700,-0.147
29.704,-0.125
29.708,-0.125
29.712,-0.140
29.716,-0.158
29.720,-0.133
29.724,-0.147
29.728,-0.100
29.732,-0.135
29.736,-0.122
29.740,-0.175
29.744,-0.163
29.748,-0.175
29.752,-0.158
29.756,-0.152
29.760,-0.138
29.764,-0.145
29.768,-0.115
29.772,-0.138
29.776,-0.190
29.780,-0.190
29.784,-0.198
29.788,-0.190
29.792,-0.190
29.796,-0.195
29.800,-0.182
29.804,-0.163
29.808,-0.220
29.812,-0.200
29.816,-0.212
29.820,-0.215
29.824,-0.215
29.828,-0.198
29.832,-0.200
29.836,-0.215
29.840,-0.240
29.844,-0.240
29.848,-0.263
29.852,-0.287
29.856,-0.275
29.860,-0.260
29.864,-0.258
29.868,-0.235
29.872,-0.258
29.876,-0.265
29.880,-0.300
29.884,-0.300
29.888,-0.275
29.892,-0.275
29.896,-0.270
29.900,-0.247
29.904,-0.282
29.908,-0.287
29.912,-0.312
29.916,-0.323
29.920,-0.302
29.924,-0.278
29.928,-0.300
29.932,-0.282
29.936,-0.285
29.940,-0.278
29.944,-0.297
29.948,-0.338
29.952,-0.312
29.956,-0.320
29.960,-0.300
29.964,-0.282
29.968,-0.290
29.972,-0.295
29.976,-0.320
29.980,-0.338
29.984,-0.333
29.988,-0.302
29.992,-0.315
29.996,-0.307
30.000,-0.312
30.004,-0.307
30.008,-0.340
30.012,-0.320
30.016,-0.320
30.020,-0.325
30.024,-0.328
30.028,-0.285
30.032,-0.307
30.036,-0.335
30.040,-0.325
30.044,-0.345
30.048,-0.352
30.052,-0.345
30.056,-0.328
30.060,-0.335
30.064,-0.333
30.068,-0.340
30.072,-0.328
30.076,-0.335
30.080,-0.340
30.084,-0.340
30.088,-0.347
30.092,-0.345
30.096,-0.320
30.100,-0.320
30.104,-0.315
30.108,-0.340
30.112,-0.350
30.116,-0.357
30.120,-0.350
30.124,-0.325
30.128,-0.300
30.132,-0.323
30.136,-0.328
30.140,-0.325
30.144,-0.345
30.148,-0.357
30.152,-0.352
30.156,-0.312
30.160,-0.287
30.164,-0.310
30.168,-0.282
30.172,-0.300
30.176,-0.290
30.180,-0.360
30.184,-0.333
30.188,-0.302
30.192,-0.275
30.196,-0.302
30.200,-0.282
30.204,-0.282
30.208,-0.290
30.212,-0.270
30.216,-0.297
30.220,-0.258
30.224,-0.263
30.228,-0.258
30.232,-0.207
30.236,-0.215
30.240,-0.233
30.244,-0.223
30.248,-0.223
30.252,-0.210
30.256,-0.198
30.260,-0.177
30.264,-0.158
30.268,-0.172
30.272,-0.195
30.276,-0.200
30.280,-0.228
30.284,-0.245
30.288,-0.273
30.292,-0.240
30.296,-0.228
30.300,-0.265
30.304,-0.245
30.308,-0.237
30.312,-0.212
30.316,-0.200
30.320,-0.210
30.324,-0.177
30.328,-0.158
30.332,-0.147
30.336,-0.172
30.340,-0.160
30.344,-0.110
30.348,-0.110
30.352,-0.070
30.356,0.022
30.360,0.160
30.364,0.388
30.368,0.620
30.372,0.965
30.376,1.310
30.380,1.623
30.384,1.938
30.388,2.047
30.392,1.960
30.396,1.597
30.400,1.127
30.404,0.677
30.408,0.273
30.412,-0.022
30.416,-0.163
30.420,-0.235
30.424,-0.245
30.428,-0.263
30.432,-0.247
30.436,-0.275
30.440,-0.300
30.444,-0.350
30.448,-0.362
30.452,-0.350
30.456,-0.350
30.460,-0.372
30.464,-0.340
30.468,-0.365
30.472,-0.372
30.476,-0.395
30.480,-0.398
30.484,-0.422
30.488,-0.412
30.492,-0.420
30.496,-0.425
30.500,-0.435
30.504,-0.435
30.508,-0.432
30.512,-0.427
30.516,-0.438
30.520,-0.420
30.524,-0.445
30.528,-0.407
30.532,-0.378
30.536,-0.415
30.540,-0.432
30.544,-0.407
30.548,-0.407
30.552,-0.432
30.556,-0.398
30.560,-0.407
30.564,-0.365
30.568,-0.395
30.572,-0.400
30.576,-0.432
30.580,-0.390
30.584,-0.438
30.588,-0.427
30.592,-0.403
30.596,-0.407
30.600,-0.385
30.604,-0.407
30.608,-0.388
30.612,-0.407
30.616,-0.435
30.620,-0.448
30.624,-0.420
30.628,-0.378
30.632,-0.390
30.636,-0.403
30.640,-0.407
30.644,-0.440
30.648,-0.440
30.652,-0.432
30.656,-0.427
30.660,-0.407
30.664,-0.383
30.668,-0.390
30.672,-0.415
30.676,-0.395
30.680,-0.395
30.684,-0.445
30.688,-0.383
30.692,-0.378
30.696,-0.323
30.700,-0.307
30.704,-0.290
30.708,-0.290
30.712,-0.287
30.716,-0.247
30.720,-0.247
30.724,-0.210
30.728,-0.145
30.732,-0.147
30.736,-0.122
30.740,-0.158
30.744,-0.125
30.748,-0.128
30.752,-0.160
30.756,-0.147
30.760,-0.172
30.764,-0.135
30.768,-0.138
30.772,-0.150
30.776,-0.188
30.780,-0.163
30.784,-0.198
30.788,-0.172
30.792,-0.215
30.796,-0.175
30.800,-0.140
30.804,-0.177
30.808,-0.207
30.812,-0.203
30.816,-0.198
30.820,-0.212
30.824,-0.200
30.828,-0.203
30.832,-0.200
30.836,-0.190
30.840,-0.198
30.844,-0.207
30.848,-0.220
30.852,-0.210
30.856,-0.200
30.860,-0.190
30.864,-0.160
30.868,-0.188
30.872,-0.207
30.876,-0.228
30.880,-0.228
30.884,-0.253
30.888,-0.233
30.892,-0.290
30.896,-0.237
30.900,-0.223
30.904,-0.215
30.908,-0.263
30.912,-0.253
30.916,-0.265
30.920,-0.275
30.924,-0.285
30.928,-0.260
30.932,-0.245
30.936,-0.240
30.940,-0.273
30.944,-0.250
30.948,-0.328
30.952,-0.263
30.956,-0.275
30.960,-0.287
30.964,-0.278
30.968,-0.287
30.972,-0.290
30.976,-0.278
30.980,-0.275
30.984,-0.297
30.988,-0.297
30.992,-0.325
30.996,-0.282
31.000,-0.297
31.004,-0.287
31.008,-0.295
31.012,-0.285
31.016,-0.325
31.020,-0.333
31.024,-0.307
31.028,-0.312
31.032,-0.290
31.036,-0.297
31.040,-0.310
31.044,-0.320
31.048,-0.333
31.052,-0.325
31.056,-0.335
31.060,-0.295
31.064,-0.295
31.068,-0.307
31.072,-0.320
31.076,-0.300
31.080,-0.333
31.084,-0.325
31.088,-0.282
31.092,-0.310
31.096,-0.307
31.100,-0.287
31.104,-0.312
31.108,-0.312
31.112,-0.310
31.116,-0.320
31.120,-0.285
31.124,-0.300
31.128,-0.323
31.132,-0.285
31.136,-0.335
31.140,-0.310
31.144,-0.345
31.148,-0.325
31.152,-0.307
31.156,-0.320
31.160,-0.297
31.164,-0.265
31.168,-0.285
31.172,-0.312
31.176,-0.300
31.180,-0.325
31.184,-0.325
31.188,-0.328
31.192,-0.275
31.196,-0.275
31.200,-0.253
31.204,-0.282
31.208,-0.315
31.212,-0.300
31.216,-0.310
31.220,-0.320
31.224,-0.300
31.228,-0.278
31.232,-0.260
31.236,-0.275
31.240,-0.287
31.244,-0.282
31.248,-0.297
31.252,-0.278
31.256,-0.265
31.260,-0.290
31.264,-0.240
31.268,-0.250
31.272,-0.290
31.276,-0.263
31.280,-0.290
31.284,-0.278
31.288,-0.315
31.292,-0.282
31.296,-0.250
31.300,-0.240
31.304,-0.245
31.308,-0.245
31.312,-0.282
31.316,-0.273
31.320,-0.282
31.324,-0.247
31.328,-0.228
31.332,-0.195
31.336,-0.198
31.340,-0.182
31.344,-0.200
31.348,-0.200
31.352,-0.212
31.356,-0.188
31.360,-0.163
31.364,-0.165
31.368,-0.160
31.372,-0.125
31.376,-0.150
31.380,-0.177
31.384,-0.188
31.388,-0.175
31.392,-0.102
31.396,-0.107
31.400,-0.090
31.404,-0.120
31.408,-0.138
31.412,-0.150
31.416,-0.175
31.420,-0.125
31.424,-0.158
31.428,-0.152
31.432,-0.177
31.436,-0.160
31.440,-0.177
31.444,-0.190
31.448,-0.198
31.452,-0.190
31.456,-0.182
31.460,-0.147
31.464,-0.113
31.468,-0.107
31.472,-0.087
31.476,-0.083
31.480,-0.070
31.484,-0.035
31.488,0.052
31.492,0.210
31.496,0.472
31.500,0.863
31.504,1.312
31.508,1.825
31.512,2.160
31.516,2.275
31.520,2.150
31.524,1.770
31.528,1.298
31.532,0.745
31.536,0.375
31.540,0.070
31.544,-0.095
31.548,-0.177
31.552,-0.190
31.556,-0.175
31.560,-0.165
31.564,-0.125
31.568,-0.177
31.572,-0.215
31.576,-0.228
31.580,-0.275
31.584,-0.250
31.588,-0.265
31.592,-0.253
31.596,-0.225
31.600,-0.265
31.604,-0.258
31.608,-0.275
31.612,-0.300
31.616,-0.282
31.620,-0.320
31.624,-0.335
31.628,-0.307
31.632,-0.287
31.636,-0.325
31.640,-0.338
31.644,-0.323
31.648,-0.362
31.652,-0.345
31.656,-0.300
31.660,-0.320
31.664,-0.287
31.668,-0.307
31.672,-0.290
31.676,-0.340
31.680,-0.360
31.684,-0.378
31.688,-0.383
31.692,-0.323
31.696,-0.300
31.700,-0.335
31.704,-0.290
31.708,-0.328
31.712,-0.347
31.716,-0.340
31.720,-0.338
31.724,-0.345
31.728,-0.307
31.732,-0.312
31.736,-0.300
31.740,-0.320
31.744,-0.300
31.748,-0.350
31.752,-0.345
31.756,-0.335
31.760,-0.320
31.764,-0.300
31.768,-0.287
31.772,-0.295
31.776,-0.320
31.780,-0.302
31.784,-0.325
31.788,-0.310
31.792,-0.282
31.796,-0.307
31.800,-0.265
31.804,-0.290
31.808,-0.320
31.812,-0.300
31.816,-0.350
31.820,-0.312
31.824,-0.300
31.828,-0.287
31.832,-0.247
31.836,-0.225
31.840,-0.273
31.844,-0.287
31.848,-0.258
31.852,-0.200
31.856,-0.175
31.860,-0.138
31.864,-0.110
31.868,-0.058
31.872,-0.040
31.876,-0.062
31.880,-0.045
31.884,-0.050
31.888,-0.048
31.892,-0.013
31.896,0.000
31.900,-0.048
31.904,-0.037
31.908,-0.033
31.912,-0.070
31.916,-0.058
31.920,-0.087
31.924,-0.077
31.928,-0.075
31.932,-0.058
31.936,-0.095
31.940,-0.102
31.944,-0.083
31.948,-0.128
31.952,-0.125
31.956,-0.070
31.960,-0.070
31.964,-0.100
31.968,-0.087
31.972,-0.115
31.976,-0.098
31.980,-0.125
31.984,-0.138
31.988,-0.100
31.992,-0.070
31.996,-0.115
32.000,-0.110
32.004,-0.102
32.008,-0.107
32.012,-0.115
32.016,-0.135
32.020,-0.133
32.024,-0.138
32.028,-0.138
32.032,-0.113
32.036,-0.140
32.040,-0.128
32.044,-0.147
32.048,-0.177
32.052,-0.177
32.056,-0.147
32.060,-0.140
32.064,-0.160
32.068,-0.170
32.072,-0.175
32.076,-0.188
32.080,-0.190
32.084,-0.190
32.088,-0.188
32.092,-0.212
32.096,-0.177
32.100,-0.152
32.104,-0.198
32.108,-0.228
32.112,-0.228
32.116,-0.190
32.120,-0.200
32.124,-0.233
32.128,-0.195
32.132,-0.198
32.136,-0.225
32.140,-0.228
32.144,-0.245
32.148,-0.237
32.152,-0.225
32.156,-0.247
32.160,-0.212
32.164,-0.275
32.168,-0.210
32.172,-0.237
32.176,-0.235
32.180,-0.245
32.184,-0.263
32.188,-0.287
32.192,-0.203
32.196,-0.220
32.200,-0.235
32.204,-0.195
32.208,-0.247
32.212,-0.273
32.216,-0.245
32.220,-0.258
32.224,-0.273
32.228,-0.245
32.232,-0.207
32.236,-0.228
32.240,-0.233
32.244,-0.237
32.248,-0.260
32.252,-0.278
32.256,-0.265
32.260,-0.225
32.264,-0.245
32.268,-0.228
32.272,-0.258
32.276,-0.260
32.280,-0.263
32.284,-0.275
32.288,-0.247
32.292,-0.225
32.296,-0.250
32.300,-0.225
32.304,-0.228
32.308,-0.275
32.312,-0.260
32.316,-0.263
32.320,-0.245
32.324,-0.207
32.328,-0.200
32.332,-0.210
32.336,-0.237
32.340,-0.237
32.344,-0.250
32.348,-0.247
32.352,-0.253
32.356,-0.263
32.360,-0.233
32.364,-0.228
32.368,-0.212
32.372,-0.220
32.376,-0.250
32.380,-0.278
32.384,-0.247
32.388,-0.240
32.392,-0.233
32.396,-0.200
32.400,-0.188
32.404,-0.225
32.408,-0.225
32.412,-0.247
32.416,-0.273
32.420,-0.233
32.424,-0.177
32.428,-0.170
32.432,-0.160
32.436,-0.163
32.440,-0.160
32.444,-0.175
32.448,-0.170
32.452,-0.190
32.456,-0.152
32.460,-0.145
32.464,-0.120
32.468,-0.122
32.472,-0.125
32.476,-0.128
32.480,-0.128
32.484,-0.113
32.488,-0.100
32.492,-0.150
32.496,-0.090
32.500,-0.095
32.504,-0.102
32.508,-0.133
32.512,-0.152
32.516,-0.163
32.520,-0.182
32.524,-0.165
32.528,-0.170
32.532,-0.122
32.536,-0.138
32.540,-0.165
32.544,-0.185
32.548,-0.128
32.552,-0.120
32.556,-0.135
32.560,-0.083
32.564,-0.062
32.568,-0.060
32.572,-0.035
32.576,0.010
32.580,0.087
32.584,0.195
32.588,0.407
32.592,0.725
32.596,1.125
32.600,1.478
32.604,1.798
32.608,2.065
32.612,2.127
32.616,1.952
32.620,1.647
32.624,1.238
32.628,0.848
32.632,0.495
32.636,0.198
32.640,0.028
32.644,-0.125
32.648,-0.125
32.652,-0.138
32.656,-0.140
32.660,-0.147
32.664,-0.138
32.668,-0.172
32.672,-0.203
32.676,-0.188
32.680,-0.245
32.684,-0.250
32.688,-0.265
32.692,-0.245
32.696,-0.225
32.700,-0.247
32.704,-0.250
32.708,-0.273
32.712,-0.265
32.716,-0.282
32.720,-0.338
32.724,-0.323
32.728,-0.278
32.732,-0.278
32.736,-0.270
32.740,-0.300
32.744,-0.297
32.748,-0.307
32.752,-0.295
32.756,-0.263
32.760,-0.287
32.764,-0.297
32.768,-0.278
32.772,-0.265
32.776,-0.307
32.780,-0.315
32.784,-0.333
32.788,-0.287
32.792,-0.323
32.796,-0.287
32.800,-0.282
32.804,-0.282
32.808,-0.282
32.812,-0.300
32.816,-0.333
32.820,-0.290
32.824,-0.300
32.828,-0.295
32.832,-0.265
32.836,-0.302
32.840,-0.290
32.844,-0.307
32.848,-0.297
32.852,-0.300
32.856,-0.302
32.860,-0.263
32.864,-0.273
32.868,-0.285
32.872,-0.295
32.876,-0.273
32.880,-0.278
32.884,-0.270
32.888,-0.325
32.892,-0.297
32.896,-0.290
32.900,-0.287
32.904,-0.270
32.908,-0.273
32.912,-0.287
32.916,-0.297
32.920,-0.295
32.924,-0.270
32.928,-0.228
32.932,-0.225
32.936,-0.200
32.940,-0.172
32.944,-0.150
32.948,-0.150
32.952,-0.145
32.956,-0.083
32.960,-0.090
32.964,-0.050
32.968,0.000
32.972,-0.010
32.976,-0.025
32.980,-0.075
32.984,-0.037
32.988,-0.015
32.992,-0.015
32.996,0.003
33.000,-0.028
33.004,-0.028
33.008,-0.075
33.012,-0.048
33.016,-0.077
33.020,-0.062
33.024,-0.037
33.028,-0.052
33.032,-0.070
33.036,-0.060
33.040,-0.098
33.044,-0.087
33.048,-0.102
33.052,-0.107
33.056,-0.100
33.060,-0.095
33.064,-0.087
33.068,-0.075
33.072,-0.135
33.076,-0.138
33.080,-0.095
33.084,-0.147
33.088,-0.110
33.092,-0.152
33.096,-0.158
33.100,-0.115
33.104,-0.100
33.108,-0.175
33.112,-0.165
33.116,-0.158
33.120,-0.152
33.124,-0.140
33.128,-0.177
33.132,-0.160
33.136,-0.158
33.140,-0.158
33.144,-0.207
33.148,-0.207
33.152,-0.198
33.156,-0.200
33.160,-0.177
33.164,-0.185
33.168,-0.177
33.172,-0.200
33.176,-0.220
33.180,-0.215
33.184,-0.225
33.188,-0.240
33.192,-0.203
33.196,-0.215
33.200,-0.203
33.204,-0.212
33.208,-0.275
33.212,-0.282
33.216,-0.258
33.220,-0.278
33.224,-0.228
33.228,-0.240
33.232,-0.233
33.236,-0.207
33.240,-0.250
33.244,-0.270
33.248,-0.270
33.252,-0.260
33.256,-0.253
33.260,-0.228
33.264,-0.210
33.268,-0.228
33.272,-0.215
33.276,-0.250
33.280,-0.258
33.284,-0.275
33.288,-0.233
33.292,-0.245
33.296,-0.245
33.300,-0.228
33.304,-0.260
33.308,-0.250
33.312,-0.253
33.316,-0.287
33.320,-0.290
33.324,-0.265
33.328,-0.260
33.332,-0.282
33.336,-0.290
33.340,-0.287
33.344,-0.282
33.348,-0.278
33.352,-0.290
33.356,-0.287
33.360,-0.273
33.364,-0.235
33.368,-0.247
33.372,-0.312
33.376,-0.275
33.380,-0.295
33.384,-0.302
33.388,-0.302
33.392,-0.285
33.396,-0.260
33.400,-0.297
33.404,-0.265
33.408,-0.265
33.412,-0.307
33.416,-0.320
33.420,-0.295
33.424,-0.295
33.428,-0.258
33.432,-0.253
33.436,-0.245
33.440,-0.297
33.444,-0.258
33.448,-0.312
33.452,-0.302
33.456,-0.295
33.460,-0.282
33.464,-0.282
33.468,-0.300
33.472,-0.282
33.476,-0.297
33.480,-0.315
33.484,-0.287
33.488,-0.297
33.492,-0.278
33.496,-0.273
33.500,-0.265
33.504,-0.273
33.508,-0.282
33.512,-0.290
33.516,-0.275
33.520,-0.275
33.524,-0.258
33.528,-0.220
33.532,-0.235
33.536,-0.195
33.540,-0.200
33.544,-0.210
33.548,-0.240
33.552,-0.228
33.556,-0.215
33.560,-0.207
33.564,-0.158
33.568,-0.190
33.572,-0.158
33.576,-0.175
33.580,-0.185
33.584,-0.228
33.588,-0.223
33.592,-0.198
33.596,-0.188
33.600,-0.185
33.604,-0.182
33.608,-0.228
33.612,-0.228
33.616,-0.263
33.620,-0.258
33.624,-0.225
33.628,-0.212
33.632,-0.200
33.636,-0.188
33.640,-0.223
33.644,-0.198
33.648,-0.235
33.652,-0.207
33.656,-0.182
33.660,-0.207
33.664,-0.163
33.668,-0.145
33.672,-0.098
33.676,-0.087
33.680,-0.013
33.684,0.098
33.688,0.323
33.692,0.672
33.696,1.100
33.700,1.552
33.704,1.890
33.708,2.060
33.712,1.903
33.716,1.498
33.720,0.975
33.724,0.522
33.728,0.135
33.732,-0.145
33.736,-0.233
33.740,-0.320
33.744,-0.273
33.748,-0.285
33.752,-0.278
33.756,-0.258
33.760,-0.285
33.764,-0.273
33.768,-0.320
33.772,-0.352
33.776,-0.340
33.780,-0.362
33.784,-0.365
33.788,-0.372
33.792,-0.370
33.796,-0.370
33.800,-0.375
33.804,-0.370
33.808,-0.372
33.812,-0.372
33.816,-0.370
33.820,-0.400
33.824,-0.360
33.828,-0.398
33.832,-0.398
33.836,-0.400
33.840,-0.383
33.844,-0.410
33.848,-0.385
33.852,-0.415
33.856,-0.398
33.860,-0.400
33.864,-0.398
33.868,-0.378
33.872,-0.398
33.876,-0.370
33.880,-0.400
33.884,-0.398
33.888,-0.385
33.892,-0.370
33.896,-0.378
33.900,-0.378
33.904,-0.383
33.908,-0.415
33.912,-0.390
33.916,-0.400
33.920,-0.422
33.924,-0.388
33.928,-0.390
33.932,-0.370
33.936,-0.372
33.940,-0.383
33.944,-0.407
33.948,-0.400
33.952,-0.398
33.956,-0.415
33.960,-0.383
33.964,-0.385
33.968,-0.395
33.972,-0.400
33.976,-0.378
33.980,-0.390
33.984,-0.400
33.988,-0.420
33.992,-0.375
33.996,-0.372
34.000,-0.362
34.004,-0.388
34.008,-0.415
34.012,-0.388
34.016,-0.388
34.020,-0.372
34.024,-0.360
34.028,-0.323
34.032,-0.350
34.036,-0.370
34.040,-0.335
34.044,-0.323
34.048,-0.325
34.052,-0.287
34.056,-0.260
34.060,-0.258
34.064,-0.198
34.068,-0.160
34.072,-0.165
34.076,-0.185
34.080,-0.152
34.084,-0.135
34.088,-0.163
34.092,-0.115
34.096,-0.113
34.100,-0.107
34.104,-0.133
34.108,-0.138
34.112,-0.138
34.116,-0.190
34.120,-0.175
34.124,-0.147
34.128,-0.200
34.132,-0.185
34.136,-0.172
34.140,-0.177
34.144,-0.185
34.148,-0.212
34.152,-0.200
34.156,-0.210
34.160,-0.198
34.164,-0.200
34.168,-0.207
34.172,-0.247
34.176,-0.215
34.180,-0.215
34.184,-0.215
34.188,-0.215
34.192,-0.203
34.196,-0.225
34.200,-0.225
34.204,-0.220
34.208,-0.265
34.212,-0.237
34.216,-0.260
34.220,-0.295
34.224,-0.247
34.228,-0.237
34.232,-0.215
34.236,-0.270
34.240,-0.247
34.244,-0.263
34.248,-0.325
34.252,-0.282
34.256,-0.282
34.260,-0.307
34.264,-0.278
34.268,-0.270
34.272,-0.310
34.276,-0.323
34.280,-0.333
34.284,-0.320
34.288,-0.325
34.292,-0.345
34.296,-0.287
34.300,-0.287
34.304,-0.307
34.308,-0.352
34.312,-0.345
34.316,-0.375
34.320,-0.370
34.324,-0.378
34.328,-0.333
34.332,-0.362
34.336,-0.325
34.340,-0.360
34.344,-0.385
34.348,-0.385
34.352,-0.395
34.356,-0.350
34.360,-0.388
34.364,-0.370
34.368,-0.347
34.372,-0.347
34.376,-0.400
34.380,-0.385
34.384,-0.357
34.388,-0.378
34.392,-0.362
34.396,-0.350
34.400,-0.365
34.404,-0.372
34.408,-0.362
34.412,-0.412
34.416,-0.385
34.420,-0.372
34.424,-0.365
34.428,-0.340
34.432,-0.370
34.436,-0.372
34.440,-0.335
34.444,-0.378
34.448,-0.395
34.452,-0.378
34.456,-0.375
34.460,-0.378
34.464,-0.328
34.468,-0.365
34.472,-0.388
34.476,-0.365
34.480,-0.400
34.484,-0.383
34.488,-0.362
34.492,-0.347
34.496,-0.347
34.500,-0.357
34.504,-0.378
34.508,-0.352
34.512,-0.385
34.516,-0.398
34.520,-0.400
34.524,-0.338
34.528,-0.350
34.532,-0.357
34.536,-0.335
34.540,-0.375
34.544,-0.378
34.548,-0.383
34.552,-0.398
34.556,-0.400
34.560,-0.383
34.564,-0.378
34.568,-0.360
34.572,-0.378
34.576,-0.395
34.580,-0.372
34.584,-0.400
34.588,-0.357
34.592,-0.375
34.596,-0.372
34.600,-0.375
34.604,-0.340
34.608,-0.378
34.612,-0.340
34.616,-0.365
34.620,-0.335
34.624,-0.370
34.628,-0.307
34.632,-0.328
34.636,-0.287
34.640,-0.302
34.644,-0.300
34.648,-0.295
34.652,-0.282
34.656,-0.282
34.660,-0.253
34.664,-0.258
34.668,-0.240
34.672,-0.253
34.676,-0.265
34.680,-0.278
34.684,-0.247
34.688,-0.285
34.692,-0.278
34.696,-0.237
34.700,-0.240
34.704,-0.302
34.708,-0.307
34.712,-0.295
34.716,-0.287
34.720,-0.312
34.724,-0.278
34.728,-0.325
34.732,-0.270
34.736,-0.250
34.740,-0.228
34.744,-0.285
34.748,-0.247
34.752,-0.245
34.756,-0.198
34.760,-0.163
34.764,-0.152
34.768,-0.100
34.772,-0.040
34.776,0.125
34.780,0.297
34.784,0.662
34.788,1.070
34.792,1.478
34.796,1.873
34.800,2.062
34.804,2.013
34.808,1.760
34.812,1.315
34.816,0.925
34.820,0.487
34.824,0.233
34.828,0.020
34.832,-0.115
34.836,-0.177
34.840,-0.237
34.844,-0.258
34.848,-0.285
34.852,-0.312
34.856,-0.285
34.860,-0.333
34.864,-0.345
34.868,-0.345
34.872,-0.352
34.876,-0.372
34.880,-0.422
34.884,-0.388
34.888,-0.407
34.892,-0.390
34.896,-0.412
34.900,-0.425
34.904,-0.400
34.908,-0.448
34.912,-0.463
34.916,-0.460
34.920,-0.435
34.924,-0.470
34.928,-0.435
34.932,-0.383
34.936,-0.448
34.940,-0.453
34.944,-0.458
34.948,-0.453
34.952,-0.448
34.956,-0.458
34.960,-0.425
34.964,-0.435
34.968,-0.463
34.972,-0.388
34.976,-0.477
34.980,-0.495
34.984,-0.435
34.988,-0.438
34.992,-0.422
34.996,-0.415
35.000,-0.383
35.004,-0.415
35.008,-0.403
35.012,-0.477
35.016,-0.445
35.020,-0.415
35.024,-0.420
35.028,-0.403
35.032,-0.400
35.036,-0.415
35.040,-0.422
35.044,-0.422
35.048,-0.420
35.052,-0.465
35.056,-0.432
35.060,-0.425
35.064,-0.400
35.068,-0.400
35.072,-0.383
35.076,-0.435
35.080,-0.450
35.084,-0.448
35.088,-0.420
35.092,-0.400
35.096,-0.412
35.100,-0.390
35.104,-0.425
35.108,-0.383
35.112,-0.440
35.116,-0.388
35.120,-0.390
35.124,-0.357
35.128,-0.360
35.132,-0.338
35.136,-0.302
35.140,-0.290
35.144,-0.287
35.148,-0.270
35.152,-0.233
35.156,-0.165
35.160,-0.140
35.164,-0.138
35.168,-0.140
35.172,-0.110
35.176,-0.152
35.180,-0.125
35.184,-0.160
